Created as New Dataset,Sample 008 By User Date Wednesday, March 05 2025
cm-1,%T
4000,00,100,12
3999,00,100,13
3998,00,100,14
3997,00,100,15
3996,00,100,14
3995,00,100,14
3994,00,100,13
3993,00,100,13
3992,00,100,13
3991,00,100,12
3990,00,100,11
3989,00,100,11
3988,00,100,12
3987,00,100,12
3986,00,100,12
3985,00,100,12
3984,00,100,11
3983,00,100,11
3982,00,100,11
3981,00,100,12
3980,00,100,12
3979,00,100,12
3978,00,100,11
3977,00,100,11
3976,00,100,11
3975,00,100,11
3974,00,100,11
3973,00,100,11
3972,00,100,11
3971,00,100,11
3970,00,100,10
3969,00,100,11
3968,00,100,11
3967,00,100,12
3966,00,100,13
3965,00,100,14
3964,00,100,14
3963,00,100,14
3962,00,100,13
3961,00,100,12
3960,00,100,12
3959,00,100,13
3958,00,100,14
3957,00,100,14
3956,00,100,14
3955,00,100,14
3954,00,100,14
3953,00,100,14
3952,00,100,13
3951,00,100,13
3950,00,100,12
3949,00,100,12
3948,00,100,13
3947,00,100,13
3946,00,100,13
3945,00,100,12
3944,00,100,11
3943,00,100,11
3942,00,100,11
3941,00,100,11
3940,00,100,11
3939,00,100,12
3938,00,100,12
3937,00,100,12
3936,00,100,12
3935,00,100,12
3934,00,100,12
3933,00,100,12
3932,00,100,11
3931,00,100,11
3930,00,100,10
3929,00,100,10
3928,00,100,10
3927,00,100,11
3926,00,100,12
3925,00,100,12
3924,00,100,13
3923,00,100,13
3922,00,100,13
3921,00,100,14
3920,00,100,15
3919,00,100,15
3918,00,100,15
3917,00,100,14
3916,00,100,13
3915,00,100,13
3914,00,100,12
3913,00,100,13
3912,00,100,13
3911,00,100,14
3910,00,100,15
3909,00,100,14
3908,00,100,13
3907,00,100,12
3906,00,100,12
3905,00,100,12
3904,00,100,12
3903,00,100,13
3902,00,100,13
3901,00,100,13
3900,00,100,12
3899,00,100,11
3898,00,100,12
3897,00,100,13
3896,00,100,14
3895,00,100,13
3894,00,100,13
3893,00,100,12
3892,00,100,12
3891,00,100,13
3890,00,100,13
3889,00,100,12
3888,00,100,11
3887,00,100,10
3886,00,100,10
3885,00,100,11
3884,00,100,12
3883,00,100,13
3882,00,100,13
3881,00,100,12
3880,00,100,13
3879,00,100,13
3878,00,100,14
3877,00,100,15
3876,00,100,15
3875,00,100,14
3874,00,100,14
3873,00,100,14
3872,00,100,15
3871,00,100,16
3870,00,100,16
3869,00,100,16
3868,00,100,15
3867,00,100,14
3866,00,100,13
3865,00,100,12
3864,00,100,12
3863,00,100,12
3862,00,100,11
3861,00,100,11
3860,00,100,11
3859,00,100,12
3858,00,100,12
3857,00,100,12
3856,00,100,12
3855,00,100,13
3854,00,100,14
3853,00,100,15
3852,00,100,16
3851,00,100,15
3850,00,100,15
3849,00,100,14
3848,00,100,14
3847,00,100,14
3846,00,100,14
3845,00,100,15
3844,00,100,15
3843,00,100,16
3842,00,100,17
3841,00,100,17
3840,00,100,17
3839,00,100,17
3838,00,100,17
3837,00,100,16
3836,00,100,15
3835,00,100,14
3834,00,100,13
3833,00,100,13
3832,00,100,13
3831,00,100,13
3830,00,100,13
3829,00,100,13
3828,00,100,13
3827,00,100,13
3826,00,100,13
3825,00,100,14
3824,00,100,15
3823,00,100,16
3822,00,100,17
3821,00,100,17
3820,00,100,18
3819,00,100,18
3818,00,100,18
3817,00,100,18
3816,00,100,17
3815,00,100,16
3814,00,100,15
3813,00,100,14
3812,00,100,14
3811,00,100,14
3810,00,100,14
3809,00,100,14
3808,00,100,14
3807,00,100,15
3806,00,100,15
3805,00,100,16
3804,00,100,17
3803,00,100,18
3802,00,100,17
3801,00,100,16
3800,00,100,15
3799,00,100,12
3798,00,100,10
3797,00,100,09
3796,00,100,09
3795,00,100,10
3794,00,100,10
3793,00,100,10
3792,00,100,10
3791,00,100,10
3790,00,100,09
3789,00,100,09
3788,00,100,08
3787,00,100,08
3786,00,100,09
3785,00,100,09
3784,00,100,10
3783,00,100,10
3782,00,100,09
3781,00,100,09
3780,00,100,08
3779,00,100,08
3778,00,100,08
3777,00,100,08
3776,00,100,08
3775,00,100,08
3774,00,100,09
3773,00,100,10
3772,00,100,11
3771,00,100,10
3770,00,100,10
3769,00,100,09
3768,00,100,10
3767,00,100,10
3766,00,100,11
3765,00,100,11
3764,00,100,11
3763,00,100,11
3762,00,100,10
3761,00,100,10
3760,00,100,09
3759,00,100,10
3758,00,100,11
3757,00,100,12
3756,00,100,13
3755,00,100,13
3754,00,100,14
3753,00,100,15
3752,00,100,16
3751,00,100,17
3750,00,100,18
3749,00,100,19
3748,00,100,19
3747,00,100,18
3746,00,100,17
3745,00,100,16
3744,00,100,15
3743,00,100,14
3742,00,100,13
3741,00,100,13
3740,00,100,14
3739,00,100,15
3738,00,100,16
3737,00,100,17
3736,00,100,17
3735,00,100,16
3734,00,100,15
3733,00,100,13
3732,00,100,13
3731,00,100,14
3730,00,100,14
3729,00,100,15
3728,00,100,16
3727,00,100,16
3726,00,100,14
3725,00,100,12
3724,00,100,10
3723,00,100,09
3722,00,100,08
3721,00,100,08
3720,00,100,08
3719,00,100,09
3718,00,100,11
3717,00,100,11
3716,00,100,11
3715,00,100,11
3714,00,100,12
3713,00,100,13
3712,00,100,14
3711,00,100,14
3710,00,100,14
3709,00,100,13
3708,00,100,13
3707,00,100,12
3706,00,100,11
3705,00,100,11
3704,00,100,11
3703,00,100,11
3702,00,100,10
3701,00,100,09
3700,00,100,10
3699,00,100,11
3698,00,100,12
3697,00,100,13
3696,00,100,14
3695,00,100,14
3694,00,100,14
3693,00,100,15
3692,00,100,15
3691,00,100,16
3690,00,100,16
3689,00,100,16
3688,00,100,17
3687,00,100,18
3686,00,100,19
3685,00,100,20
3684,00,100,22
3683,00,100,25
3682,00,100,28
3681,00,100,32
3680,00,100,35
3679,00,100,38
3678,00,100,43
3677,00,100,48
3676,00,100,52
3675,00,100,54
3674,00,100,55
3673,00,100,55
3672,00,100,56
3671,00,100,58
3670,00,100,58
3669,00,100,58
3668,00,100,58
3667,00,100,59
3666,00,100,60
3665,00,100,62
3664,00,100,63
3663,00,100,63
3662,00,100,64
3661,00,100,65
3660,00,100,67
3659,00,100,69
3658,00,100,70
3657,00,100,69
3656,00,100,67
3655,00,100,66
3654,00,100,66
3653,00,100,66
3652,00,100,67
3651,00,100,66
3650,00,100,65
3649,00,100,64
3648,00,100,63
3647,00,100,61
3646,00,100,58
3645,00,100,56
3644,00,100,54
3643,00,100,52
3642,00,100,50
3641,00,100,47
3640,00,100,44
3639,00,100,44
3638,00,100,45
3637,00,100,46
3636,00,100,44
3635,00,100,40
3634,00,100,35
3633,00,100,31
3632,00,100,29
3631,00,100,27
3630,00,100,25
3629,00,100,22
3628,00,100,20
3627,00,100,18
3626,00,100,16
3625,00,100,15
3624,00,100,15
3623,00,100,15
3622,00,100,15
3621,00,100,15
3620,00,100,13
3619,00,100,11
3618,00,100,10
3617,00,100,10
3616,00,100,10
3615,00,100,11
3614,00,100,11
3613,00,100,10
3612,00,100,10
3611,00,100,10
3610,00,100,10
3609,00,100,10
3608,00,100,09
3607,00,100,08
3606,00,100,07
3605,00,100,06
3604,00,100,05
3603,00,100,04
3602,00,100,04
3601,00,100,04
3600,00,100,04
3599,00,100,03
3598,00,100,03
3597,00,100,04
3596,00,100,06
3595,00,100,06
3594,00,100,06
3593,00,100,05
3592,00,100,04
3591,00,100,04
3590,00,100,05
3589,00,100,04
3588,00,100,04
3587,00,100,04
3586,00,100,05
3585,00,100,06
3584,00,100,08
3583,00,100,08
3582,00,100,08
3581,00,100,06
3580,00,100,05
3579,00,100,04
3578,00,100,03
3577,00,100,03
3576,00,100,03
3575,00,100,04
3574,00,100,03
3573,00,100,03
3572,00,100,04
3571,00,100,05
3570,00,100,06
3569,00,100,06
3568,00,100,05
3567,00,100,03
3566,00,100,02
3565,00,100,02
3564,00,100,02
3563,00,100,03
3562,00,100,03
3561,00,100,03
3560,00,100,03
3559,00,100,03
3558,00,100,03
3557,00,100,02
3556,00,100,02
3555,00,100,02
3554,00,100,03
3553,00,100,03
3552,00,100,03
3551,00,100,03
3550,00,100,04
3549,00,100,04
3548,00,100,05
3547,00,100,06
3546,00,100,05
3545,00,100,04
3544,00,100,02
3543,00,100,01
3542,00,100,00
3541,00,100,01
3540,00,100,01
3539,00,100,00
3538,00,100,00
3537,00,99,99
3536,00,100,00
3535,00,100,02
3534,00,100,03
3533,00,100,05
3532,00,100,05
3531,00,100,05
3530,00,100,05
3529,00,100,04
3528,00,100,02
3527,00,100,01
3526,00,100,00
3525,00,100,00
3524,00,100,00
3523,00,100,01
3522,00,100,01
3521,00,100,01
3520,00,100,00
3519,00,99,99
3518,00,99,98
3517,00,99,98
3516,00,99,99
3515,00,100,00
3514,00,100,01
3513,00,100,01
3512,00,100,00
3511,00,99,98
3510,00,99,98
3509,00,99,99
3508,00,100,00
3507,00,100,01
3506,00,100,01
3505,00,100,01
3504,00,100,01
3503,00,99,99
3502,00,99,97
3501,00,99,97
3500,00,99,98
3499,00,99,99
3498,00,100,00
3497,00,100,00
3496,00,99,99
3495,00,99,99
3494,00,99,99
3493,00,99,99
3492,00,99,99
3491,00,99,99
3490,00,100,00
3489,00,100,01
3488,00,100,02
3487,00,100,03
3486,00,100,02
3485,00,100,01
3484,00,100,00
3483,00,100,00
3482,00,100,00
3481,00,99,99
3480,00,99,99
3479,00,100,00
3478,00,100,01
3477,00,100,01
3476,00,100,00
3475,00,99,99
3474,00,100,00
3473,00,100,01
3472,00,100,02
3471,00,100,02
3470,00,100,01
3469,00,100,01
3468,00,100,02
3467,00,100,02
3466,00,100,02
3465,00,100,02
3464,00,100,02
3463,00,100,02
3462,00,100,02
3461,00,100,01
3460,00,100,00
3459,00,100,00
3458,00,100,00
3457,00,100,01
3456,00,100,02
3455,00,100,02
3454,00,100,02
3453,00,100,01
3452,00,100,01
3451,00,100,02
3450,00,100,03
3449,00,100,03
3448,00,100,03
3447,00,100,02
3446,00,100,02
3445,00,100,02
3444,00,100,03
3443,00,100,03
3442,00,100,03
3441,00,100,01
3440,00,99,99
3439,00,99,97
3438,00,99,97
3437,00,99,98
3436,00,100,00
3435,00,100,01
3434,00,100,01
3433,00,99,99
3432,00,99,97
3431,00,99,96
3430,00,99,96
3429,00,99,97
3428,00,99,98
3427,00,99,99
3426,00,99,98
3425,00,99,97
3424,00,99,96
3423,00,99,95
3422,00,99,93
3421,00,99,92
3420,00,99,90
3419,00,99,89
3418,00,99,89
3417,00,99,89
3416,00,99,89
3415,00,99,88
3414,00,99,86
3413,00,99,85
3412,00,99,84
3411,00,99,83
3410,00,99,82
3409,00,99,81
3408,00,99,80
3407,00,99,80
3406,00,99,79
3405,00,99,77
3404,00,99,75
3403,00,99,73
3402,00,99,72
3401,00,99,71
3400,00,99,70
3399,00,99,70
3398,00,99,70
3397,00,99,68
3396,00,99,66
3395,00,99,63
3394,00,99,61
3393,00,99,61
3392,00,99,61
3391,00,99,61
3390,00,99,60
3389,00,99,58
3388,00,99,56
3387,00,99,54
3386,00,99,53
3385,00,99,53
3384,00,99,54
3383,00,99,55
3382,00,99,54
3381,00,99,54
3380,00,99,53
3379,00,99,53
3378,00,99,53
3377,00,99,53
3376,00,99,52
3375,00,99,52
3374,00,99,52
3373,00,99,52
3372,00,99,52
3371,00,99,52
3370,00,99,53
3369,00,99,54
3368,00,99,55
3367,00,99,56
3366,00,99,57
3365,00,99,58
3364,00,99,59
3363,00,99,58
3362,00,99,56
3361,00,99,55
3360,00,99,55
3359,00,99,56
3358,00,99,57
3357,00,99,58
3356,00,99,59
3355,00,99,59
3354,00,99,59
3353,00,99,60
3352,00,99,62
3351,00,99,64
3350,00,99,65
3349,00,99,66
3348,00,99,68
3347,00,99,69
3346,00,99,69
3345,00,99,69
3344,00,99,69
3343,00,99,68
3342,00,99,68
3341,00,99,69
3340,00,99,69
3339,00,99,71
3338,00,99,72
3337,00,99,74
3336,00,99,76
3335,00,99,78
3334,00,99,80
3333,00,99,82
3332,00,99,82
3331,00,99,81
3330,00,99,80
3329,00,99,80
3328,00,99,79
3327,00,99,78
3326,00,99,79
3325,00,99,80
3324,00,99,82
3323,00,99,83
3322,00,99,84
3321,00,99,84
3320,00,99,84
3319,00,99,84
3318,00,99,84
3317,00,99,83
3316,00,99,83
3315,00,99,83
3314,00,99,83
3313,00,99,84
3312,00,99,85
3311,00,99,85
3310,00,99,85
3309,00,99,85
3308,00,99,86
3307,00,99,87
3306,00,99,87
3305,00,99,87
3304,00,99,87
3303,00,99,87
3302,00,99,88
3301,00,99,89
3300,00,99,89
3299,00,99,88
3298,00,99,87
3297,00,99,88
3296,00,99,88
3295,00,99,89
3294,00,99,89
3293,00,99,90
3292,00,99,90
3291,00,99,90
3290,00,99,90
3289,00,99,91
3288,00,99,91
3287,00,99,91
3286,00,99,90
3285,00,99,89
3284,00,99,90
3283,00,99,91
3282,00,99,91
3281,00,99,92
3280,00,99,92
3279,00,99,92
3278,00,99,92
3277,00,99,92
3276,00,99,93
3275,00,99,94
3274,00,99,95
3273,00,99,95
3272,00,99,95
3271,00,99,94
3270,00,99,94
3269,00,99,93
3268,00,99,93
3267,00,99,93
3266,00,99,93
3265,00,99,93
3264,00,99,93
3263,00,99,93
3262,00,99,94
3261,00,99,94
3260,00,99,94
3259,00,99,94
3258,00,99,95
3257,00,99,96
3256,00,99,97
3255,00,99,99
3254,00,99,99
3253,00,99,99
3252,00,99,98
3251,00,99,98
3250,00,99,98
3249,00,99,98
3248,00,99,97
3247,00,99,97
3246,00,99,98
3245,00,99,98
3244,00,99,99
3243,00,100,00
3242,00,100,00
3241,00,100,00
3240,00,100,00
3239,00,99,99
3238,00,99,98
3237,00,99,99
3236,00,99,99
3235,00,100,00
3234,00,100,00
3233,00,100,01
3232,00,100,02
3231,00,100,02
3230,00,100,01
3229,00,100,01
3228,00,100,00
3227,00,100,00
3226,00,100,00
3225,00,100,00
3224,00,100,00
3223,00,100,00
3222,00,100,00
3221,00,100,00
3220,00,100,00
3219,00,100,01
3218,00,100,03
3217,00,100,04
3216,00,100,04
3215,00,100,03
3214,00,100,03
3213,00,100,02
3212,00,100,03
3211,00,100,03
3210,00,100,04
3209,00,100,04
3208,00,100,03
3207,00,100,02
3206,00,100,01
3205,00,100,01
3204,00,100,02
3203,00,100,03
3202,00,100,04
3201,00,100,05
3200,00,100,05
3199,00,100,05
3198,00,100,05
3197,00,100,05
3196,00,100,04
3195,00,100,04
3194,00,100,03
3193,00,100,03
3192,00,100,03
3191,00,100,04
3190,00,100,04
3189,00,100,05
3188,00,100,05
3187,00,100,06
3186,00,100,06
3185,00,100,07
3184,00,100,07
3183,00,100,07
3182,00,100,05
3181,00,100,04
3180,00,100,04
3179,00,100,06
3178,00,100,07
3177,00,100,07
3176,00,100,06
3175,00,100,05
3174,00,100,04
3173,00,100,03
3172,00,100,03
3171,00,100,03
3170,00,100,03
3169,00,100,02
3168,00,100,02
3167,00,100,03
3166,00,100,04
3165,00,100,04
3164,00,100,03
3163,00,100,03
3162,00,100,03
3161,00,100,03
3160,00,100,04
3159,00,100,04
3158,00,100,05
3157,00,100,04
3156,00,100,03
3155,00,100,02
3154,00,100,02
3153,00,100,02
3152,00,100,03
3151,00,100,03
3150,00,100,04
3149,00,100,04
3148,00,100,04
3147,00,100,04
3146,00,100,03
3145,00,100,03
3144,00,100,02
3143,00,100,02
3142,00,100,03
3141,00,100,03
3140,00,100,04
3139,00,100,03
3138,00,100,02
3137,00,100,02
3136,00,100,02
3135,00,100,02
3134,00,100,02
3133,00,100,02
3132,00,100,03
3131,00,100,04
3130,00,100,04
3129,00,100,04
3128,00,100,03
3127,00,100,02
3126,00,100,01
3125,00,100,01
3124,00,100,02
3123,00,100,04
3122,00,100,05
3121,00,100,05
3120,00,100,04
3119,00,100,04
3118,00,100,03
3117,00,100,03
3116,00,100,03
3115,00,100,02
3114,00,100,03
3113,00,100,03
3112,00,100,04
3111,00,100,04
3110,00,100,04
3109,00,100,03
3108,00,100,03
3107,00,100,03
3106,00,100,04
3105,00,100,05
3104,00,100,05
3103,00,100,05
3102,00,100,04
3101,00,100,03
3100,00,100,04
3099,00,100,05
3098,00,100,06
3097,00,100,05
3096,00,100,05
3095,00,100,04
3094,00,100,04
3093,00,100,04
3092,00,100,04
3091,00,100,05
3090,00,100,05
3089,00,100,04
3088,00,100,03
3087,00,100,02
3086,00,100,02
3085,00,100,03
3084,00,100,03
3083,00,100,02
3082,00,100,02
3081,00,100,01
3080,00,100,01
3079,00,100,01
3078,00,100,01
3077,00,100,03
3076,00,100,04
3075,00,100,05
3074,00,100,06
3073,00,100,05
3072,00,100,05
3071,00,100,06
3070,00,100,06
3069,00,100,05
3068,00,100,04
3067,00,100,03
3066,00,100,03
3065,00,100,03
3064,00,100,03
3063,00,100,03
3062,00,100,04
3061,00,100,04
3060,00,100,05
3059,00,100,05
3058,00,100,05
3057,00,100,05
3056,00,100,04
3055,00,100,04
3054,00,100,04
3053,00,100,04
3052,00,100,05
3051,00,100,05
3050,00,100,05
3049,00,100,04
3048,00,100,04
3047,00,100,04
3046,00,100,05
3045,00,100,05
3044,00,100,05
3043,00,100,05
3042,00,100,06
3041,00,100,07
3040,00,100,08
3039,00,100,08
3038,00,100,07
3037,00,100,06
3036,00,100,04
3035,00,100,04
3034,00,100,05
3033,00,100,07
3032,00,100,08
3031,00,100,09
3030,00,100,09
3029,00,100,09
3028,00,100,10
3027,00,100,10
3026,00,100,11
3025,00,100,12
3024,00,100,14
3023,00,100,15
3022,00,100,16
3021,00,100,18
3020,00,100,21
3019,00,100,23
3018,00,100,27
3017,00,100,30
3016,00,100,35
3015,00,100,41
3014,00,100,49
3013,00,100,58
3012,00,100,68
3011,00,100,80
3010,00,100,92
3009,00,101,05
3008,00,101,19
3007,00,101,35
3006,00,101,52
3005,00,101,70
3004,00,101,90
3003,00,102,09
3002,00,102,28
3001,00,102,47
3000,00,102,64
2999,00,102,80
2998,00,102,93
2997,00,103,05
2996,00,103,15
2995,00,103,25
2994,00,103,34
2993,00,103,43
2992,00,103,51
2991,00,103,58
2990,00,103,65
2989,00,103,73
2988,00,103,83
2987,00,103,98
2986,00,104,23
2985,00,104,65
2984,00,105,24
2983,00,105,90
2982,00,106,39
2981,00,106,53
2980,00,106,34
2979,00,105,96
2978,00,105,57
2977,00,105,24
2976,00,105,01
2975,00,104,89
2974,00,104,89
2973,00,104,98
2972,00,105,06
2971,00,105,03
2970,00,104,82
2969,00,104,51
2968,00,104,22
2967,00,103,99
2966,00,103,80
2965,00,103,63
2964,00,103,45
2963,00,103,30
2962,00,103,17
2961,00,103,05
2960,00,102,95
2959,00,102,85
2958,00,102,77
2957,00,102,69
2956,00,102,61
2955,00,102,52
2954,00,102,44
2953,00,102,35
2952,00,102,27
2951,00,102,19
2950,00,102,11
2949,00,102,03
2948,00,101,95
2947,00,101,86
2946,00,101,78
2945,00,101,68
2944,00,101,60
2943,00,101,52
2942,00,101,47
2941,00,101,43
2940,00,101,40
2939,00,101,37
2938,00,101,34
2937,00,101,31
2936,00,101,29
2935,00,101,29
2934,00,101,30
2933,00,101,31
2932,00,101,31
2931,00,101,30
2930,00,101,28
2929,00,101,25
2928,00,101,22
2927,00,101,20
2926,00,101,18
2925,00,101,17
2924,00,101,16
2923,00,101,17
2922,00,101,17
2921,00,101,18
2920,00,101,19
2919,00,101,21
2918,00,101,24
2917,00,101,26
2916,00,101,28
2915,00,101,30
2914,00,101,32
2913,00,101,34
2912,00,101,36
2911,00,101,37
2910,00,101,40
2909,00,101,43
2908,00,101,46
2907,00,101,48
2906,00,101,50
2905,00,101,53
2904,00,101,56
2903,00,101,59
2902,00,101,61
2901,00,101,61
2900,00,101,61
2899,00,101,62
2898,00,101,64
2897,00,101,67
2896,00,101,71
2895,00,101,74
2894,00,101,78
2893,00,101,82
2892,00,101,86
2891,00,101,90
2890,00,101,92
2889,00,101,93
2888,00,101,91
2887,00,101,89
2886,00,101,87
2885,00,101,87
2884,00,101,87
2883,00,101,82
2882,00,101,73
2881,00,101,62
2880,00,101,50
2879,00,101,40
2878,00,101,32
2877,00,101,25
2876,00,101,20
2875,00,101,16
2874,00,101,14
2873,00,101,12
2872,00,101,10
2871,00,101,08
2870,00,101,05
2869,00,101,01
2868,00,100,98
2867,00,100,94
2866,00,100,91
2865,00,100,87
2864,00,100,82
2863,00,100,77
2862,00,100,72
2861,00,100,69
2860,00,100,66
2859,00,100,64
2858,00,100,61
2857,00,100,58
2856,00,100,55
2855,00,100,53
2854,00,100,52
2853,00,100,51
2852,00,100,49
2851,00,100,48
2850,00,100,47
2849,00,100,46
2848,00,100,43
2847,00,100,41
2846,00,100,39
2845,00,100,38
2844,00,100,37
2843,00,100,36
2842,00,100,35
2841,00,100,34
2840,00,100,32
2839,00,100,31
2838,00,100,31
2837,00,100,31
2836,00,100,31
2835,00,100,31
2834,00,100,30
2833,00,100,31
2832,00,100,31
2831,00,100,32
2830,00,100,32
2829,00,100,31
2828,00,100,31
2827,00,100,31
2826,00,100,30
2825,00,100,29
2824,00,100,28
2823,00,100,28
2822,00,100,27
2821,00,100,27
2820,00,100,27
2819,00,100,28
2818,00,100,29
2817,00,100,29
2816,00,100,28
2815,00,100,28
2814,00,100,27
2813,00,100,26
2812,00,100,26
2811,00,100,25
2810,00,100,24
2809,00,100,24
2808,00,100,24
2807,00,100,24
2806,00,100,24
2805,00,100,24
2804,00,100,23
2803,00,100,23
2802,00,100,23
2801,00,100,23
2800,00,100,23
2799,00,100,23
2798,00,100,23
2797,00,100,23
2796,00,100,22
2795,00,100,22
2794,00,100,22
2793,00,100,22
2792,00,100,21
2791,00,100,20
2790,00,100,19
2789,00,100,20
2788,00,100,20
2787,00,100,21
2786,00,100,21
2785,00,100,20
2784,00,100,20
2783,00,100,19
2782,00,100,20
2781,00,100,20
2780,00,100,20
2779,00,100,20
2778,00,100,20
2777,00,100,20
2776,00,100,20
2775,00,100,20
2774,00,100,19
2773,00,100,19
2772,00,100,18
2771,00,100,18
2770,00,100,18
2769,00,100,18
2768,00,100,18
2767,00,100,19
2766,00,100,18
2765,00,100,17
2764,00,100,16
2763,00,100,17
2762,00,100,18
2761,00,100,19
2760,00,100,19
2759,00,100,19
2758,00,100,18
2757,00,100,17
2756,00,100,16
2755,00,100,16
2754,00,100,16
2753,00,100,15
2752,00,100,15
2751,00,100,15
2750,00,100,16
2749,00,100,17
2748,00,100,18
2747,00,100,18
2746,00,100,18
2745,00,100,18
2744,00,100,18
2743,00,100,18
2742,00,100,18
2741,00,100,17
2740,00,100,16
2739,00,100,16
2738,00,100,16
2737,00,100,17
2736,00,100,17
2735,00,100,16
2734,00,100,15
2733,00,100,14
2732,00,100,14
2731,00,100,14
2730,00,100,14
2729,00,100,14
2728,00,100,14
2727,00,100,15
2726,00,100,15
2725,00,100,15
2724,00,100,14
2723,00,100,13
2722,00,100,13
2721,00,100,13
2720,00,100,14
2719,00,100,14
2718,00,100,14
2717,00,100,14
2716,00,100,14
2715,00,100,15
2714,00,100,16
2713,00,100,16
2712,00,100,16
2711,00,100,15
2710,00,100,14
2709,00,100,14
2708,00,100,13
2707,00,100,13
2706,00,100,13
2705,00,100,14
2704,00,100,14
2703,00,100,14
2702,00,100,14
2701,00,100,13
2700,00,100,12
2699,00,100,11
2698,00,100,11
2697,00,100,12
2696,00,100,12
2695,00,100,12
2694,00,100,12
2693,00,100,13
2692,00,100,13
2691,00,100,13
2690,00,100,13
2689,00,100,13
2688,00,100,13
2687,00,100,13
2686,00,100,14
2685,00,100,14
2684,00,100,14
2683,00,100,14
2682,00,100,14
2681,00,100,14
2680,00,100,15
2679,00,100,15
2678,00,100,15
2677,00,100,16
2676,00,100,16
2675,00,100,16
2674,00,100,16
2673,00,100,16
2672,00,100,17
2671,00,100,17
2670,00,100,18
2669,00,100,18
2668,00,100,18
2667,00,100,18
2666,00,100,17
2665,00,100,17
2664,00,100,16
2663,00,100,15
2662,00,100,15
2661,00,100,14
2660,00,100,14
2659,00,100,13
2658,00,100,13
2657,00,100,12
2656,00,100,12
2655,00,100,11
2654,00,100,11
2653,00,100,11
2652,00,100,11
2651,00,100,11
2650,00,100,11
2649,00,100,10
2648,00,100,10
2647,00,100,11
2646,00,100,11
2645,00,100,11
2644,00,100,11
2643,00,100,11
2642,00,100,10
2641,00,100,10
2640,00,100,11
2639,00,100,11
2638,00,100,10
2637,00,100,10
2636,00,100,09
2635,00,100,08
2634,00,100,07
2633,00,100,07
2632,00,100,08
2631,00,100,09
2630,00,100,09
2629,00,100,09
2628,00,100,09
2627,00,100,08
2626,00,100,08
2625,00,100,07
2624,00,100,06
2623,00,100,06
2622,00,100,07
2621,00,100,08
2620,00,100,09
2619,00,100,09
2618,00,100,07
2617,00,100,04
2616,00,100,03
2615,00,100,03
2614,00,100,04
2613,00,100,06
2612,00,100,07
2611,00,100,07
2610,00,100,07
2609,00,100,07
2608,00,100,06
2607,00,100,06
2606,00,100,07
2605,00,100,07
2604,00,100,07
2603,00,100,07
2602,00,100,08
2601,00,100,09
2600,00,100,09
2599,00,100,08
2598,00,100,08
2597,00,100,07
2596,00,100,07
2595,00,100,07
2594,00,100,05
2593,00,100,03
2592,00,100,02
2591,00,100,02
2590,00,100,03
2589,00,100,03
2588,00,100,03
2587,00,100,03
2586,00,100,03
2585,00,100,03
2584,00,100,03
2583,00,100,04
2582,00,100,05
2581,00,100,06
2580,00,100,07
2579,00,100,06
2578,00,100,05
2577,00,100,04
2576,00,100,04
2575,00,100,04
2574,00,100,05
2573,00,100,05
2572,00,100,06
2571,00,100,06
2570,00,100,06
2569,00,100,06
2568,00,100,05
2567,00,100,04
2566,00,100,03
2565,00,100,04
2564,00,100,05
2563,00,100,07
2562,00,100,08
2561,00,100,08
2560,00,100,07
2559,00,100,06
2558,00,100,04
2557,00,100,05
2556,00,100,06
2555,00,100,08
2554,00,100,09
2553,00,100,08
2552,00,100,08
2551,00,100,07
2550,00,100,07
2549,00,100,07
2548,00,100,07
2547,00,100,06
2546,00,100,06
2545,00,100,07
2544,00,100,08
2543,00,100,08
2542,00,100,08
2541,00,100,08
2540,00,100,08
2539,00,100,08
2538,00,100,08
2537,00,100,07
2536,00,100,06
2535,00,100,05
2534,00,100,04
2533,00,100,05
2532,00,100,07
2531,00,100,10
2530,00,100,11
2529,00,100,11
2528,00,100,10
2527,00,100,09
2526,00,100,09
2525,00,100,09
2524,00,100,09
2523,00,100,10
2522,00,100,10
2521,00,100,09
2520,00,100,08
2519,00,100,08
2518,00,100,08
2517,00,100,09
2516,00,100,10
2515,00,100,10
2514,00,100,09
2513,00,100,09
2512,00,100,09
2511,00,100,11
2510,00,100,13
2509,00,100,13
2508,00,100,12
2507,00,100,11
2506,00,100,11
2505,00,100,11
2504,00,100,12
2503,00,100,13
2502,00,100,13
2501,00,100,13
2500,00,100,12
2499,00,100,12
2498,00,100,13
2497,00,100,12
2496,00,100,11
2495,00,100,10
2494,00,100,10
2493,00,100,11
2492,00,100,12
2491,00,100,13
2490,00,100,14
2489,00,100,14
2488,00,100,14
2487,00,100,14
2486,00,100,14
2485,00,100,14
2484,00,100,13
2483,00,100,12
2482,00,100,12
2481,00,100,12
2480,00,100,12
2479,00,100,11
2478,00,100,11
2477,00,100,11
2476,00,100,11
2475,00,100,10
2474,00,100,11
2473,00,100,11
2472,00,100,11
2471,00,100,11
2470,00,100,11
2469,00,100,11
2468,00,100,11
2467,00,100,12
2466,00,100,11
2465,00,100,11
2464,00,100,11
2463,00,100,11
2462,00,100,11
2461,00,100,10
2460,00,100,09
2459,00,100,08
2458,00,100,09
2457,00,100,09
2456,00,100,09
2455,00,100,09
2454,00,100,10
2453,00,100,10
2452,00,100,10
2451,00,100,09
2450,00,100,09
2449,00,100,09
2448,00,100,10
2447,00,100,10
2446,00,100,09
2445,00,100,10
2444,00,100,10
2443,00,100,11
2442,00,100,12
2441,00,100,12
2440,00,100,11
2439,00,100,11
2438,00,100,11
2437,00,100,11
2436,00,100,11
2435,00,100,11
2434,00,100,11
2433,00,100,12
2432,00,100,13
2431,00,100,14
2430,00,100,13
2429,00,100,12
2428,00,100,12
2427,00,100,12
2426,00,100,13
2425,00,100,13
2424,00,100,13
2423,00,100,12
2422,00,100,11
2421,00,100,11
2420,00,100,13
2419,00,100,14
2418,00,100,13
2417,00,100,13
2416,00,100,12
2415,00,100,11
2414,00,100,11
2413,00,100,11
2412,00,100,12
2411,00,100,11
2410,00,100,11
2409,00,100,11
2408,00,100,10
2407,00,100,11
2406,00,100,11
2405,00,100,13
2404,00,100,15
2403,00,100,16
2402,00,100,16
2401,00,100,15
2400,00,100,15
2399,00,100,14
2398,00,100,13
2397,00,100,12
2396,00,100,11
2395,00,100,11
2394,00,100,12
2393,00,100,13
2392,00,100,14
2391,00,100,15
2390,00,100,15
2389,00,100,15
2388,00,100,14
2387,00,100,15
2386,00,100,16
2385,00,100,18
2384,00,100,20
2383,00,100,20
2382,00,100,20
2381,00,100,21
2380,00,100,21
2379,00,100,21
2378,00,100,20
2377,00,100,19
2376,00,100,19
2375,00,100,20
2374,00,100,21
2373,00,100,21
2372,00,100,21
2371,00,100,21
2370,00,100,22
2369,00,100,24
2368,00,100,26
2367,00,100,27
2366,00,100,27
2365,00,100,25
2364,00,100,22
2363,00,100,18
2362,00,100,13
2361,00,100,10
2360,00,100,10
2359,00,100,15
2358,00,100,21
2357,00,100,26
2356,00,100,27
2355,00,100,26
2354,00,100,23
2353,00,100,21
2352,00,100,21
2351,00,100,20
2350,00,100,20
2349,00,100,20
2348,00,100,20
2347,00,100,20
2346,00,100,19
2345,00,100,19
2344,00,100,19
2343,00,100,18
2342,00,100,16
2341,00,100,12
2340,00,100,09
2339,00,100,10
2338,00,100,11
2337,00,100,13
2336,00,100,16
2335,00,100,20
2334,00,100,21
2333,00,100,18
2332,00,100,14
2331,00,100,12
2330,00,100,13
2329,00,100,15
2328,00,100,19
2327,00,100,19
2326,00,100,16
2325,00,100,10
2324,00,100,04
2323,00,100,02
2322,00,100,04
2321,00,100,06
2320,00,100,06
2319,00,100,06
2318,00,100,05
2317,00,100,04
2316,00,100,03
2315,00,100,03
2314,00,100,02
2313,00,100,01
2312,00,100,02
2311,00,100,03
2310,00,100,03
2309,00,100,03
2308,00,100,01
2307,00,99,99
2306,00,99,97
2305,00,99,95
2304,00,99,94
2303,00,99,94
2302,00,99,93
2301,00,99,91
2300,00,99,90
2299,00,99,89
2298,00,99,87
2297,00,99,86
2296,00,99,84
2295,00,99,82
2294,00,99,80
2293,00,99,77
2292,00,99,75
2291,00,99,73
2290,00,99,71
2289,00,99,67
2288,00,99,64
2287,00,99,62
2286,00,99,60
2285,00,99,59
2284,00,99,58
2283,00,99,57
2282,00,99,56
2281,00,99,54
2280,00,99,52
2279,00,99,51
2278,00,99,51
2277,00,99,50
2276,00,99,50
2275,00,99,49
2274,00,99,46
2273,00,99,40
2272,00,99,36
2271,00,99,36
2270,00,99,36
2269,00,99,36
2268,00,99,33
2267,00,99,29
2266,00,99,25
2265,00,99,21
2264,00,99,17
2263,00,99,16
2262,00,99,15
2261,00,99,13
2260,00,99,09
2259,00,99,04
2258,00,98,99
2257,00,98,95
2256,00,98,94
2255,00,98,94
2254,00,98,93
2253,00,98,90
2252,00,98,84
2251,00,98,80
2250,00,98,76
2249,00,98,73
2248,00,98,71
2247,00,98,69
2246,00,98,66
2245,00,98,64
2244,00,98,63
2243,00,98,64
2242,00,98,64
2241,00,98,62
2240,00,98,58
2239,00,98,55
2238,00,98,53
2237,00,98,51
2236,00,98,49
2235,00,98,47
2234,00,98,44
2233,00,98,41
2232,00,98,39
2231,00,98,38
2230,00,98,39
2229,00,98,40
2228,00,98,39
2227,00,98,37
2226,00,98,35
2225,00,98,33
2224,00,98,31
2223,00,98,27
2222,00,98,24
2221,00,98,21
2220,00,98,20
2219,00,98,22
2218,00,98,24
2217,00,98,25
2216,00,98,21
2215,00,98,15
2214,00,98,10
2213,00,98,08
2212,00,98,09
2211,00,98,10
2210,00,98,09
2209,00,98,07
2208,00,98,04
2207,00,98,03
2206,00,98,03
2205,00,98,01
2204,00,97,99
2203,00,97,99
2202,00,97,99
2201,00,97,97
2200,00,97,94
2199,00,97,91
2198,00,97,89
2197,00,97,87
2196,00,97,85
2195,00,97,83
2194,00,97,83
2193,00,97,82
2192,00,97,81
2191,00,97,79
2190,00,97,75
2189,00,97,71
2188,00,97,66
2187,00,97,63
2186,00,97,63
2185,00,97,66
2184,00,97,70
2183,00,97,75
2182,00,97,81
2181,00,97,86
2180,00,97,87
2179,00,97,84
2178,00,97,82
2177,00,97,84
2176,00,97,88
2175,00,97,92
2174,00,97,95
2173,00,97,96
2172,00,97,96
2171,00,97,98
2170,00,98,02
2169,00,98,07
2168,00,98,11
2167,00,98,13
2166,00,98,15
2165,00,98,16
2164,00,98,17
2163,00,98,17
2162,00,98,19
2161,00,98,25
2160,00,98,38
2159,00,98,55
2158,00,98,73
2157,00,98,87
2156,00,98,94
2155,00,98,97
2154,00,99,00
2153,00,99,03
2152,00,99,06
2151,00,99,10
2150,00,99,15
2149,00,99,19
2148,00,99,22
2147,00,99,24
2146,00,99,26
2145,00,99,29
2144,00,99,32
2143,00,99,34
2142,00,99,37
2141,00,99,42
2140,00,99,48
2139,00,99,53
2138,00,99,54
2137,00,99,54
2136,00,99,54
2135,00,99,57
2134,00,99,63
2133,00,99,70
2132,00,99,75
2131,00,99,78
2130,00,99,79
2129,00,99,79
2128,00,99,78
2127,00,99,78
2126,00,99,79
2125,00,99,80
2124,00,99,81
2123,00,99,80
2122,00,99,80
2121,00,99,80
2120,00,99,81
2119,00,99,82
2118,00,99,83
2117,00,99,84
2116,00,99,85
2115,00,99,85
2114,00,99,85
2113,00,99,85
2112,00,99,86
2111,00,99,88
2110,00,99,89
2109,00,99,90
2108,00,99,90
2107,00,99,89
2106,00,99,90
2105,00,99,91
2104,00,99,93
2103,00,99,92
2102,00,99,91
2101,00,99,89
2100,00,99,89
2099,00,99,91
2098,00,99,93
2097,00,99,95
2096,00,99,96
2095,00,99,98
2094,00,100,00
2093,00,100,00
2092,00,99,99
2091,00,99,98
2090,00,99,97
2089,00,99,97
2088,00,99,97
2087,00,99,96
2086,00,99,94
2085,00,99,91
2084,00,99,91
2083,00,99,92
2082,00,99,93
2081,00,99,92
2080,00,99,91
2079,00,99,90
2078,00,99,90
2077,00,99,89
2076,00,99,88
2075,00,99,88
2074,00,99,89
2073,00,99,89
2072,00,99,89
2071,00,99,90
2070,00,99,91
2069,00,99,92
2068,00,99,93
2067,00,99,93
2066,00,99,91
2065,00,99,89
2064,00,99,89
2063,00,99,91
2062,00,99,92
2061,00,99,90
2060,00,99,88
2059,00,99,87
2058,00,99,89
2057,00,99,91
2056,00,99,93
2055,00,99,95
2054,00,99,96
2053,00,99,93
2052,00,99,86
2051,00,99,79
2050,00,99,77
2049,00,99,81
2048,00,99,88
2047,00,99,93
2046,00,99,94
2045,00,99,93
2044,00,99,93
2043,00,99,93
2042,00,99,92
2041,00,99,90
2040,00,99,88
2039,00,99,89
2038,00,99,92
2037,00,99,95
2036,00,99,97
2035,00,99,98
2034,00,99,98
2033,00,100,00
2032,00,100,04
2031,00,100,06
2030,00,100,04
2029,00,99,99
2028,00,99,95
2027,00,99,94
2026,00,99,95
2025,00,99,97
2024,00,99,98
2023,00,100,00
2022,00,100,01
2021,00,100,00
2020,00,99,99
2019,00,99,98
2018,00,99,98
2017,00,99,98
2016,00,99,99
2015,00,100,01
2014,00,100,03
2013,00,100,03
2012,00,100,02
2011,00,100,03
2010,00,100,03
2009,00,100,03
2008,00,100,05
2007,00,100,10
2006,00,100,12
2005,00,100,11
2004,00,100,09
2003,00,100,09
2002,00,100,11
2001,00,100,11
2000,00,100,09
1999,00,100,07
1998,00,100,04
1997,00,100,01
1996,00,99,97
1995,00,99,96
1994,00,99,97
1993,00,99,97
1992,00,99,98
1991,00,100,01
1990,00,100,03
1989,00,99,99
1988,00,99,90
1987,00,99,83
1986,00,99,81
1985,00,99,83
1984,00,99,85
1983,00,99,88
1982,00,99,89
1981,00,99,86
1980,00,99,78
1979,00,99,73
1978,00,99,79
1977,00,99,92
1976,00,100,04
1975,00,100,10
1974,00,100,10
1973,00,100,06
1972,00,100,02
1971,00,100,02
1970,00,100,07
1969,00,100,11
1968,00,100,11
1967,00,100,09
1966,00,100,10
1965,00,100,14
1964,00,100,16
1963,00,100,13
1962,00,100,09
1961,00,100,08
1960,00,100,11
1959,00,100,14
1958,00,100,14
1957,00,100,12
1956,00,100,09
1955,00,100,08
1954,00,100,09
1953,00,100,11
1952,00,100,10
1951,00,100,07
1950,00,100,05
1949,00,100,06
1948,00,100,08
1947,00,100,08
1946,00,100,06
1945,00,100,05
1944,00,100,06
1943,00,100,07
1942,00,100,08
1941,00,100,09
1940,00,100,09
1939,00,100,08
1938,00,100,07
1937,00,100,05
1936,00,100,05
1935,00,100,07
1934,00,100,08
1933,00,100,08
1932,00,100,07
1931,00,100,06
1930,00,100,06
1929,00,100,06
1928,00,100,06
1927,00,100,06
1926,00,100,07
1925,00,100,09
1924,00,100,10
1923,00,100,10
1922,00,100,08
1921,00,100,06
1920,00,100,06
1919,00,100,05
1918,00,100,05
1917,00,100,03
1916,00,100,03
1915,00,100,04
1914,00,100,05
1913,00,100,05
1912,00,100,04
1911,00,100,05
1910,00,100,04
1909,00,100,02
1908,00,100,01
1907,00,100,02
1906,00,100,04
1905,00,100,05
1904,00,100,04
1903,00,100,04
1902,00,100,05
1901,00,100,06
1900,00,100,07
1899,00,100,07
1898,00,100,06
1897,00,100,04
1896,00,100,00
1895,00,99,98
1894,00,99,99
1893,00,100,02
1892,00,100,03
1891,00,100,04
1890,00,100,05
1889,00,100,05
1888,00,100,05
1887,00,100,04
1886,00,100,02
1885,00,100,02
1884,00,100,02
1883,00,100,04
1882,00,100,05
1881,00,100,05
1880,00,100,04
1879,00,100,03
1878,00,100,04
1877,00,100,04
1876,00,100,04
1875,00,100,05
1874,00,100,05
1873,00,100,04
1872,00,100,03
1871,00,100,03
1870,00,100,03
1869,00,100,03
1868,00,100,02
1867,00,100,01
1866,00,100,00
1865,00,100,01
1864,00,100,03
1863,00,100,05
1862,00,100,04
1861,00,100,02
1860,00,100,00
1859,00,99,99
1858,00,100,00
1857,00,100,01
1856,00,100,02
1855,00,100,02
1854,00,100,01
1853,00,100,01
1852,00,100,00
1851,00,100,00
1850,00,100,01
1849,00,100,01
1848,00,100,02
1847,00,100,02
1846,00,100,02
1845,00,100,01
1844,00,99,99
1843,00,99,98
1842,00,99,99
1841,00,100,00
1840,00,100,01
1839,00,100,00
1838,00,99,99
1837,00,99,99
1836,00,99,98
1835,00,99,99
1834,00,99,99
1833,00,99,98
1832,00,99,97
1831,00,99,98
1830,00,99,98
1829,00,99,99
1828,00,99,99
1827,00,99,99
1826,00,100,00
1825,00,100,00
1824,00,100,00
1823,00,99,99
1822,00,99,99
1821,00,99,99
1820,00,100,00
1819,00,100,01
1818,00,100,03
1817,00,100,03
1816,00,100,02
1815,00,100,01
1814,00,100,00
1813,00,100,00
1812,00,99,99
1811,00,99,98
1810,00,99,98
1809,00,99,99
1808,00,99,99
1807,00,100,00
1806,00,100,02
1805,00,100,02
1804,00,100,01
1803,00,99,99
1802,00,99,98
1801,00,99,98
1800,00,99,98
1799,00,99,98
1798,00,99,98
1797,00,99,98
1796,00,99,97
1795,00,99,96
1794,00,99,97
1793,00,99,97
1792,00,99,97
1791,00,99,97
1790,00,99,98
1789,00,99,99
1788,00,99,99
1787,00,99,99
1786,00,99,99
1785,00,99,99
1784,00,100,00
1783,00,100,00
1782,00,100,00
1781,00,100,01
1780,00,100,01
1779,00,100,01
1778,00,100,01
1777,00,100,01
1776,00,100,00
1775,00,100,00
1774,00,100,01
1773,00,100,02
1772,00,100,03
1771,00,100,04
1770,00,100,03
1769,00,100,03
1768,00,100,02
1767,00,100,01
1766,00,100,01
1765,00,100,01
1764,00,100,01
1763,00,100,00
1762,00,99,99
1761,00,100,00
1760,00,100,01
1759,00,100,01
1758,00,100,01
1757,00,100,01
1756,00,100,02
1755,00,100,03
1754,00,100,02
1753,00,100,03
1752,00,100,04
1751,00,100,03
1750,00,100,02
1749,00,100,01
1748,00,100,02
1747,00,100,02
1746,00,100,01
1745,00,100,00
1744,00,100,00
1743,00,99,99
1742,00,99,99
1741,00,99,99
1740,00,99,99
1739,00,99,99
1738,00,99,98
1737,00,99,98
1736,00,99,97
1735,00,99,97
1734,00,99,98
1733,00,99,98
1732,00,99,98
1731,00,99,98
1730,00,99,97
1729,00,99,98
1728,00,99,99
1727,00,99,99
1726,00,99,98
1725,00,99,97
1724,00,99,96
1723,00,99,96
1722,00,99,97
1721,00,99,98
1720,00,99,99
1719,00,99,99
1718,00,100,00
1717,00,100,00
1716,00,99,98
1715,00,99,97
1714,00,99,98
1713,00,99,98
1712,00,99,96
1711,00,99,96
1710,00,99,96
1709,00,99,97
1708,00,99,97
1707,00,99,97
1706,00,99,97
1705,00,99,97
1704,00,99,96
1703,00,99,95
1702,00,99,95
1701,00,99,95
1700,00,99,94
1699,00,99,95
1698,00,99,97
1697,00,99,99
1696,00,99,99
1695,00,99,99
1694,00,99,99
1693,00,99,99
1692,00,99,99
1691,00,99,99
1690,00,99,99
1689,00,99,99
1688,00,99,99
1687,00,99,99
1686,00,99,99
1685,00,99,98
1684,00,99,98
1683,00,99,99
1682,00,99,99
1681,00,99,99
1680,00,100,00
1679,00,100,00
1678,00,100,00
1677,00,100,00
1676,00,100,01
1675,00,100,00
1674,00,99,98
1673,00,99,97
1672,00,99,97
1671,00,99,98
1670,00,99,99
1669,00,100,00
1668,00,100,00
1667,00,100,00
1666,00,99,99
1665,00,99,99
1664,00,100,00
1663,00,100,00
1662,00,99,99
1661,00,99,99
1660,00,99,99
1659,00,99,99
1658,00,99,99
1657,00,100,00
1656,00,100,01
1655,00,100,02
1654,00,100,02
1653,00,100,01
1652,00,100,01
1651,00,100,01
1650,00,100,01
1649,00,100,00
1648,00,99,99
1647,00,99,98
1646,00,99,98
1645,00,99,98
1644,00,99,97
1643,00,99,98
1642,00,99,98
1641,00,99,98
1640,00,99,97
1639,00,99,97
1638,00,99,97
1637,00,99,98
1636,00,99,98
1635,00,99,97
1634,00,99,96
1633,00,99,96
1632,00,99,95
1631,00,99,96
1630,00,99,96
1629,00,99,95
1628,00,99,95
1627,00,99,95
1626,00,99,94
1625,00,99,92
1624,00,99,91
1623,00,99,92
1622,00,99,92
1621,00,99,90
1620,00,99,89
1619,00,99,88
1618,00,99,87
1617,00,99,87
1616,00,99,87
1615,00,99,88
1614,00,99,87
1613,00,99,85
1612,00,99,83
1611,00,99,82
1610,00,99,80
1609,00,99,79
1608,00,99,79
1607,00,99,81
1606,00,99,82
1605,00,99,82
1604,00,99,83
1603,00,99,84
1602,00,99,83
1601,00,99,82
1600,00,99,82
1599,00,99,83
1598,00,99,83
1597,00,99,82
1596,00,99,82
1595,00,99,82
1594,00,99,83
1593,00,99,84
1592,00,99,84
1591,00,99,85
1590,00,99,85
1589,00,99,85
1588,00,99,85
1587,00,99,86
1586,00,99,87
1585,00,99,87
1584,00,99,88
1583,00,99,90
1582,00,99,91
1581,00,99,90
1580,00,99,90
1579,00,99,91
1578,00,99,91
1577,00,99,90
1576,00,99,90
1575,00,99,91
1574,00,99,90
1573,00,99,89
1572,00,99,90
1571,00,99,90
1570,00,99,90
1569,00,99,90
1568,00,99,91
1567,00,99,93
1566,00,99,94
1565,00,99,93
1564,00,99,93
1563,00,99,93
1562,00,99,93
1561,00,99,94
1560,00,99,97
1559,00,100,01
1558,00,100,00
1557,00,99,96
1556,00,99,94
1555,00,99,93
1554,00,99,93
1553,00,99,93
1552,00,99,93
1551,00,99,93
1550,00,99,92
1549,00,99,92
1548,00,99,93
1547,00,99,95
1546,00,99,96
1545,00,99,95
1544,00,99,94
1543,00,99,94
1542,00,99,95
1541,00,99,96
1540,00,99,96
1539,00,99,98
1538,00,99,98
1537,00,99,97
1536,00,99,95
1535,00,99,95
1534,00,99,97
1533,00,99,98
1532,00,99,97
1531,00,99,96
1530,00,99,95
1529,00,99,95
1528,00,99,94
1527,00,99,93
1526,00,99,93
1525,00,99,92
1524,00,99,91
1523,00,99,90
1522,00,99,90
1521,00,99,90
1520,00,99,90
1519,00,99,90
1518,00,99,90
1517,00,99,91
1516,00,99,92
1515,00,99,93
1514,00,99,94
1513,00,99,95
1512,00,99,95
1511,00,99,95
1510,00,99,95
1509,00,99,96
1508,00,99,96
1507,00,99,95
1506,00,99,96
1505,00,99,98
1504,00,99,98
1503,00,99,98
1502,00,100,00
1501,00,100,02
1500,00,100,05
1499,00,100,07
1498,00,100,09
1497,00,100,12
1496,00,100,13
1495,00,100,14
1494,00,100,14
1493,00,100,16
1492,00,100,16
1491,00,100,17
1490,00,100,17
1489,00,100,18
1488,00,100,17
1487,00,100,17
1486,00,100,18
1485,00,100,18
1484,00,100,18
1483,00,100,17
1482,00,100,18
1481,00,100,18
1480,00,100,19
1479,00,100,20
1478,00,100,22
1477,00,100,26
1476,00,100,31
1475,00,100,38
1474,00,100,46
1473,00,100,50
1472,00,100,43
1471,00,100,31
1470,00,100,21
1469,00,100,13
1468,00,100,09
1467,00,100,09
1466,00,100,15
1465,00,100,26
1464,00,100,37
1463,00,100,42
1462,00,100,42
1461,00,100,39
1460,00,100,34
1459,00,100,29
1458,00,100,27
1457,00,100,28
1456,00,100,29
1455,00,100,28
1454,00,100,27
1453,00,100,25
1452,00,100,24
1451,00,100,23
1450,00,100,23
1449,00,100,24
1448,00,100,24
1447,00,100,22
1446,00,100,21
1445,00,100,21
1444,00,100,21
1443,00,100,21
1442,00,100,20
1441,00,100,20
1440,00,100,21
1439,00,100,21
1438,00,100,21
1437,00,100,21
1436,00,100,22
1435,00,100,20
1434,00,100,19
1433,00,100,19
1432,00,100,20
1431,00,100,20
1430,00,100,21
1429,00,100,21
1428,00,100,21
1427,00,100,21
1426,00,100,21
1425,00,100,22
1424,00,100,24
1423,00,100,24
1422,00,100,25
1421,00,100,26
1420,00,100,30
1419,00,100,33
1418,00,100,36
1417,00,100,39
1416,00,100,42
1415,00,100,44
1414,00,100,47
1413,00,100,51
1412,00,100,55
1411,00,100,60
1410,00,100,64
1409,00,100,69
1408,00,100,76
1407,00,100,83
1406,00,100,91
1405,00,100,99
1404,00,101,09
1403,00,101,19
1402,00,101,28
1401,00,101,39
1400,00,101,51
1399,00,101,63
1398,00,101,73
1397,00,101,83
1396,00,101,92
1395,00,102,01
1394,00,102,07
1393,00,102,12
1392,00,102,14
1391,00,102,14
1390,00,102,13
1389,00,102,16
1388,00,102,20
1387,00,102,23
1386,00,102,24
1385,00,102,25
1384,00,102,28
1383,00,102,32
1382,00,102,34
1381,00,102,33
1380,00,102,28
1379,00,102,20
1378,00,102,10
1377,00,102,01
1376,00,101,93
1375,00,101,86
1374,00,101,78
1373,00,101,71
1372,00,101,64
1371,00,101,55
1370,00,101,45
1369,00,101,35
1368,00,101,28
1367,00,101,21
1366,00,101,16
1365,00,101,11
1364,00,101,07
1363,00,101,02
1362,00,100,98
1361,00,100,93
1360,00,100,90
1359,00,100,87
1358,00,100,83
1357,00,100,80
1356,00,100,77
1355,00,100,74
1354,00,100,71
1353,00,100,68
1352,00,100,65
1351,00,100,63
1350,00,100,61
1349,00,100,59
1348,00,100,58
1347,00,100,56
1346,00,100,54
1345,00,100,52
1344,00,100,52
1343,00,100,51
1342,00,100,50
1341,00,100,49
1340,00,100,47
1339,00,100,46
1338,00,100,44
1337,00,100,43
1336,00,100,43
1335,00,100,43
1334,00,100,41
1333,00,100,39
1332,00,100,36
1331,00,100,33
1330,00,100,30
1329,00,100,28
1328,00,100,27
1327,00,100,25
1326,00,100,23
1325,00,100,21
1324,00,100,19
1323,00,100,17
1322,00,100,16
1321,00,100,15
1320,00,100,14
1319,00,100,13
1318,00,100,11
1317,00,100,09
1316,00,100,09
1315,00,100,08
1314,00,100,07
1313,00,100,06
1312,00,100,05
1311,00,100,05
1310,00,100,04
1309,00,100,03
1308,00,100,01
1307,00,100,01
1306,00,100,01
1305,00,100,01
1304,00,100,02
1303,00,100,03
1302,00,100,02
1301,00,100,01
1300,00,100,01
1299,00,100,00
1298,00,99,99
1297,00,99,98
1296,00,99,96
1295,00,99,95
1294,00,99,94
1293,00,99,93
1292,00,99,93
1291,00,99,94
1290,00,99,94
1289,00,99,94
1288,00,99,95
1287,00,99,97
1286,00,99,98
1285,00,99,98
1284,00,99,98
1283,00,99,98
1282,00,100,00
1281,00,100,02
1280,00,100,05
1279,00,100,08
1278,00,100,11
1277,00,100,14
1276,00,100,16
1275,00,100,20
1274,00,100,25
1273,00,100,31
1272,00,100,36
1271,00,100,41
1270,00,100,46
1269,00,100,50
1268,00,100,54
1267,00,100,57
1266,00,100,60
1265,00,100,61
1264,00,100,63
1263,00,100,64
1262,00,100,64
1261,00,100,63
1260,00,100,63
1259,00,100,62
1258,00,100,62
1257,00,100,63
1256,00,100,65
1255,00,100,68
1254,00,100,70
1253,00,100,71
1252,00,100,70
1251,00,100,67
1250,00,100,62
1249,00,100,56
1248,00,100,49
1247,00,100,40
1246,00,100,32
1245,00,100,26
1244,00,100,23
1243,00,100,21
1242,00,100,21
1241,00,100,19
1240,00,100,16
1239,00,100,11
1238,00,100,05
1237,00,100,00
1236,00,99,95
1235,00,99,88
1234,00,99,80
1233,00,99,71
1232,00,99,62
1231,00,99,53
1230,00,99,43
1229,00,99,34
1228,00,99,24
1227,00,99,15
1226,00,99,07
1225,00,98,99
1224,00,98,92
1223,00,98,86
1222,00,98,80
1221,00,98,75
1220,00,98,69
1219,00,98,63
1218,00,98,58
1217,00,98,53
1216,00,98,47
1215,00,98,40
1214,00,98,34
1213,00,98,29
1212,00,98,25
1211,00,98,21
1210,00,98,17
1209,00,98,13
1208,00,98,09
1207,00,98,05
1206,00,98,02
1205,00,97,99
1204,00,97,96
1203,00,97,94
1202,00,97,91
1201,00,97,87
1200,00,97,84
1199,00,97,81
1198,00,97,79
1197,00,97,77
1196,00,97,75
1195,00,97,74
1194,00,97,74
1193,00,97,73
1192,00,97,72
1191,00,97,70
1190,00,97,70
1189,00,97,72
1188,00,97,73
1187,00,97,75
1186,00,97,76
1185,00,97,77
1184,00,97,78
1183,00,97,80
1182,00,97,83
1181,00,97,87
1180,00,97,91
1179,00,97,95
1178,00,97,97
1177,00,97,99
1176,00,98,01
1175,00,98,02
1174,00,98,03
1173,00,98,06
1172,00,98,10
1171,00,98,13
1170,00,98,17
1169,00,98,20
1168,00,98,23
1167,00,98,27
1166,00,98,30
1165,00,98,34
1164,00,98,35
1163,00,98,35
1162,00,98,33
1161,00,98,32
1160,00,98,33
1159,00,98,33
1158,00,98,34
1157,00,98,34
1156,00,98,34
1155,00,98,33
1154,00,98,31
1153,00,98,29
1152,00,98,27
1151,00,98,23
1150,00,98,19
1149,00,98,13
1148,00,98,07
1147,00,98,01
1146,00,97,94
1145,00,97,86
1144,00,97,77
1143,00,97,67
1142,00,97,60
1141,00,97,53
1140,00,97,49
1139,00,97,44
1138,00,97,39
1137,00,97,32
1136,00,97,23
1135,00,97,13
1134,00,97,06
1133,00,97,00
1132,00,96,97
1131,00,96,93
1130,00,96,88
1129,00,96,83
1128,00,96,76
1127,00,96,69
1126,00,96,63
1125,00,96,56
1124,00,96,50
1123,00,96,44
1122,00,96,39
1121,00,96,33
1120,00,96,27
1119,00,96,20
1118,00,96,15
1117,00,96,09
1116,00,96,03
1115,00,95,97
1114,00,95,90
1113,00,95,84
1112,00,95,78
1111,00,95,72
1110,00,95,67
1109,00,95,63
1108,00,95,60
1107,00,95,57
1106,00,95,54
1105,00,95,52
1104,00,95,50
1103,00,95,47
1102,00,95,45
1101,00,95,43
1100,00,95,43
1099,00,95,43
1098,00,95,44
1097,00,95,45
1096,00,95,46
1095,00,95,48
1094,00,95,51
1093,00,95,55
1092,00,95,57
1091,00,95,58
1090,00,95,58
1089,00,95,56
1088,00,95,54
1087,00,95,52
1086,00,95,49
1085,00,95,47
1084,00,95,45
1083,00,95,42
1082,00,95,38
1081,00,95,34
1080,00,95,30
1079,00,95,28
1078,00,95,25
1077,00,95,20
1076,00,95,16
1075,00,95,14
1074,00,95,14
1073,00,95,12
1072,00,95,06
1071,00,94,97
1070,00,94,87
1069,00,94,78
1068,00,94,69
1067,00,94,60
1066,00,94,50
1065,00,94,40
1064,00,94,31
1063,00,94,23
1062,00,94,18
1061,00,94,11
1060,00,94,02
1059,00,93,94
1058,00,93,88
1057,00,93,83
1056,00,93,75
1055,00,93,65
1054,00,93,55
1053,00,93,45
1052,00,93,36
1051,00,93,29
1050,00,93,22
1049,00,93,16
1048,00,93,09
1047,00,93,03
1046,00,92,97
1045,00,92,93
1044,00,92,89
1043,00,92,84
1042,00,92,80
1041,00,92,77
1040,00,92,73
1039,00,92,69
1038,00,92,66
1037,00,92,64
1036,00,92,63
1035,00,92,62
1034,00,92,61
1033,00,92,60
1032,00,92,59
1031,00,92,58
1030,00,92,57
1029,00,92,56
1028,00,92,56
1027,00,92,58
1026,00,92,61
1025,00,92,63
1024,00,92,64
1023,00,92,67
1022,00,92,70
1021,00,92,73
1020,00,92,74
1019,00,92,75
1018,00,92,75
1017,00,92,77
1016,00,92,79
1015,00,92,84
1014,00,92,89
1013,00,92,93
1012,00,92,96
1011,00,93,01
1010,00,93,06
1009,00,93,11
1008,00,93,16
1007,00,93,20
1006,00,93,24
1005,00,93,29
1004,00,93,34
1003,00,93,39
1002,00,93,44
1001,00,93,49
1000,00,93,55
999,00,93,62
998,00,93,68
997,00,93,72
996,00,93,74
995,00,93,75
994,00,93,77
993,00,93,80
992,00,93,82
991,00,93,85
990,00,93,87
989,00,93,88
988,00,93,89
987,00,93,90
986,00,93,91
985,00,93,91
984,00,93,91
983,00,93,90
982,00,93,89
981,00,93,90
980,00,93,92
979,00,93,96
978,00,94,00
977,00,94,05
976,00,94,12
975,00,94,20
974,00,94,30
973,00,94,41
972,00,94,52
971,00,94,63
970,00,94,72
969,00,94,78
968,00,94,82
967,00,94,85
966,00,94,86
965,00,94,83
964,00,94,80
963,00,94,77
962,00,94,75
961,00,94,74
960,00,94,76
959,00,94,81
958,00,94,87
957,00,94,90
956,00,94,91
955,00,94,91
954,00,94,90
953,00,94,87
952,00,94,81
951,00,94,74
950,00,94,67
949,00,94,60
948,00,94,54
947,00,94,51
946,00,94,49
945,00,94,47
944,00,94,42
943,00,94,38
942,00,94,34
941,00,94,30
940,00,94,26
939,00,94,21
938,00,94,15
937,00,94,07
936,00,93,97
935,00,93,86
934,00,93,77
933,00,93,68
932,00,93,61
931,00,93,55
930,00,93,52
929,00,93,50
928,00,93,47
927,00,93,45
926,00,93,44
925,00,93,43
924,00,93,41
923,00,93,41
922,00,93,42
921,00,93,45
920,00,93,47
919,00,93,49
918,00,93,49
917,00,93,48
916,00,93,49
915,00,93,53
914,00,93,58
913,00,93,62
912,00,93,63
911,00,93,63
910,00,93,64
909,00,93,66
908,00,93,68
907,00,93,69
906,00,93,68
905,00,93,67
904,00,93,67
903,00,93,69
902,00,93,69
901,00,93,69
900,00,93,68
899,00,93,69
898,00,93,70
897,00,93,70
896,00,93,67
895,00,93,62
894,00,93,57
893,00,93,52
892,00,93,47
891,00,93,43
890,00,93,39
889,00,93,34
888,00,93,28
887,00,93,21
886,00,93,15
885,00,93,08
884,00,93,01
883,00,92,94
882,00,92,88
881,00,92,82
880,00,92,75
879,00,92,69
878,00,92,63
877,00,92,56
876,00,92,50
875,00,92,45
874,00,92,42
873,00,92,37
872,00,92,32
871,00,92,27
870,00,92,23
869,00,92,19
868,00,92,16
867,00,92,13
866,00,92,07
865,00,91,99
864,00,91,92
863,00,91,90
862,00,91,88
861,00,91,85
860,00,91,79
859,00,91,74
858,00,91,70
857,00,91,65
856,00,91,58
855,00,91,53
854,00,91,50
853,00,91,47
852,00,91,42
851,00,91,39
850,00,91,36
849,00,91,33
848,00,91,29
847,00,91,28
846,00,91,27
845,00,91,25
844,00,91,19
843,00,91,13
842,00,91,08
841,00,91,03
840,00,90,96
839,00,90,91
838,00,90,87
837,00,90,82
836,00,90,75
835,00,90,69
834,00,90,66
833,00,90,65
832,00,90,61
831,00,90,56
830,00,90,49
829,00,90,41
828,00,90,33
827,00,90,27
826,00,90,24
825,00,90,19
824,00,90,12
823,00,90,05
822,00,89,99
821,00,89,92
820,00,89,84
819,00,89,76
818,00,89,71
817,00,89,68
816,00,89,65
815,00,89,62
814,00,89,58
813,00,89,56
812,00,89,53
811,00,89,52
810,00,89,51
809,00,89,49
808,00,89,45
807,00,89,42
806,00,89,41
805,00,89,42
804,00,89,44
803,00,89,45
802,00,89,46
801,00,89,45
800,00,89,46
799,00,89,49
798,00,89,54
797,00,89,57
796,00,89,57
795,00,89,58
794,00,89,61
793,00,89,64
792,00,89,67
791,00,89,71
790,00,89,77
789,00,89,82
788,00,89,85
787,00,89,88
786,00,89,91
785,00,89,94
784,00,89,97
783,00,90,00
782,00,90,02
781,00,90,04
780,00,90,07
779,00,90,09
778,00,90,13
777,00,90,16
776,00,90,20
775,00,90,26
774,00,90,32
773,00,90,36
772,00,90,37
771,00,90,40
770,00,90,44
769,00,90,45
768,00,90,46
767,00,90,48
766,00,90,51
765,00,90,54
764,00,90,54
763,00,90,53
762,00,90,55
761,00,90,58
760,00,90,62
759,00,90,67
758,00,90,72
757,00,90,73
756,00,90,73
755,00,90,74
754,00,90,76
753,00,90,78
752,00,90,79
751,00,90,81
750,00,90,83
749,00,90,83
748,00,90,83
747,00,90,85
746,00,90,87
745,00,90,87
744,00,90,87
743,00,90,89
742,00,90,93
741,00,90,94
740,00,90,92
739,00,90,92
738,00,90,94
737,00,90,94
736,00,90,90
735,00,90,85
734,00,90,84
733,00,90,85
732,00,90,87
731,00,90,90
730,00,90,93
729,00,90,94
728,00,90,94
727,00,90,93
726,00,90,94
725,00,90,93
724,00,90,91
723,00,90,91
722,00,90,95
721,00,90,98
720,00,90,96
719,00,90,92
718,00,90,90
717,00,90,91
716,00,90,91
715,00,90,90
714,00,90,89
713,00,90,87
712,00,90,85
711,00,90,82
710,00,90,78
709,00,90,73
708,00,90,68
707,00,90,66
706,00,90,66
705,00,90,66
704,00,90,65
703,00,90,65
702,00,90,68
701,00,90,72
700,00,90,74
699,00,90,77
698,00,90,81
697,00,90,86
696,00,90,90
695,00,90,92
694,00,90,92
693,00,90,92
692,00,90,92
691,00,90,95
690,00,90,99
689,00,91,04
688,00,91,09
687,00,91,15
686,00,91,21
685,00,91,23
684,00,91,21
683,00,91,21
682,00,91,26
681,00,91,29
680,00,91,28
679,00,91,27
678,00,91,28
677,00,91,31
676,00,91,36
675,00,91,41
674,00,91,47
673,00,91,53
672,00,91,56
671,00,91,59
670,00,91,59
669,00,91,48
668,00,91,26
667,00,91,24
666,00,91,40
665,00,91,51
664,00,91,57
663,00,91,62
662,00,91,70
661,00,91,79
660,00,91,84
659,00,91,84
658,00,91,83
657,00,91,81
656,00,92,05
655,00,92,07
654,00,92,14
653,00,92,22
652,00,92,24
651,00,92,18
650,00,92,10
