Created as New Dataset,Sample 007 By User Date Wednesday, March 05 2025
cm-1,%T
4000,00,98,53
3999,00,98,54
3998,00,98,55
3997,00,98,55
3996,00,98,54
3995,00,98,53
3994,00,98,52
3993,00,98,52
3992,00,98,51
3991,00,98,51
3990,00,98,51
3989,00,98,52
3988,00,98,54
3987,00,98,55
3986,00,98,56
3985,00,98,56
3984,00,98,56
3983,00,98,56
3982,00,98,56
3981,00,98,55
3980,00,98,54
3979,00,98,53
3978,00,98,53
3977,00,98,52
3976,00,98,52
3975,00,98,52
3974,00,98,52
3973,00,98,53
3972,00,98,53
3971,00,98,53
3970,00,98,54
3969,00,98,54
3968,00,98,54
3967,00,98,54
3966,00,98,53
3965,00,98,54
3964,00,98,54
3963,00,98,55
3962,00,98,55
3961,00,98,54
3960,00,98,53
3959,00,98,52
3958,00,98,53
3957,00,98,54
3956,00,98,55
3955,00,98,55
3954,00,98,55
3953,00,98,55
3952,00,98,54
3951,00,98,54
3950,00,98,54
3949,00,98,55
3948,00,98,56
3947,00,98,56
3946,00,98,56
3945,00,98,55
3944,00,98,55
3943,00,98,54
3942,00,98,53
3941,00,98,52
3940,00,98,51
3939,00,98,51
3938,00,98,52
3937,00,98,52
3936,00,98,52
3935,00,98,52
3934,00,98,52
3933,00,98,52
3932,00,98,52
3931,00,98,52
3930,00,98,52
3929,00,98,52
3928,00,98,53
3927,00,98,54
3926,00,98,55
3925,00,98,55
3924,00,98,54
3923,00,98,53
3922,00,98,53
3921,00,98,53
3920,00,98,54
3919,00,98,54
3918,00,98,55
3917,00,98,55
3916,00,98,55
3915,00,98,55
3914,00,98,54
3913,00,98,54
3912,00,98,54
3911,00,98,54
3910,00,98,53
3909,00,98,52
3908,00,98,52
3907,00,98,52
3906,00,98,53
3905,00,98,55
3904,00,98,55
3903,00,98,54
3902,00,98,53
3901,00,98,52
3900,00,98,51
3899,00,98,52
3898,00,98,53
3897,00,98,53
3896,00,98,53
3895,00,98,51
3894,00,98,50
3893,00,98,49
3892,00,98,51
3891,00,98,52
3890,00,98,52
3889,00,98,51
3888,00,98,50
3887,00,98,50
3886,00,98,50
3885,00,98,50
3884,00,98,50
3883,00,98,51
3882,00,98,52
3881,00,98,54
3880,00,98,56
3879,00,98,56
3878,00,98,55
3877,00,98,54
3876,00,98,53
3875,00,98,53
3874,00,98,52
3873,00,98,51
3872,00,98,51
3871,00,98,52
3870,00,98,53
3869,00,98,53
3868,00,98,53
3867,00,98,52
3866,00,98,52
3865,00,98,51
3864,00,98,50
3863,00,98,50
3862,00,98,49
3861,00,98,48
3860,00,98,48
3859,00,98,48
3858,00,98,48
3857,00,98,47
3856,00,98,47
3855,00,98,47
3854,00,98,48
3853,00,98,48
3852,00,98,48
3851,00,98,49
3850,00,98,50
3849,00,98,51
3848,00,98,51
3847,00,98,52
3846,00,98,52
3845,00,98,53
3844,00,98,54
3843,00,98,55
3842,00,98,54
3841,00,98,54
3840,00,98,54
3839,00,98,53
3838,00,98,52
3837,00,98,51
3836,00,98,50
3835,00,98,50
3834,00,98,51
3833,00,98,51
3832,00,98,50
3831,00,98,50
3830,00,98,49
3829,00,98,49
3828,00,98,49
3827,00,98,50
3826,00,98,50
3825,00,98,50
3824,00,98,49
3823,00,98,50
3822,00,98,51
3821,00,98,52
3820,00,98,52
3819,00,98,50
3818,00,98,49
3817,00,98,48
3816,00,98,48
3815,00,98,48
3814,00,98,47
3813,00,98,47
3812,00,98,48
3811,00,98,48
3810,00,98,48
3809,00,98,49
3808,00,98,50
3807,00,98,50
3806,00,98,49
3805,00,98,48
3804,00,98,48
3803,00,98,50
3802,00,98,51
3801,00,98,49
3800,00,98,47
3799,00,98,46
3798,00,98,46
3797,00,98,47
3796,00,98,48
3795,00,98,48
3794,00,98,48
3793,00,98,47
3792,00,98,47
3791,00,98,47
3790,00,98,47
3789,00,98,46
3788,00,98,45
3787,00,98,45
3786,00,98,45
3785,00,98,45
3784,00,98,46
3783,00,98,46
3782,00,98,46
3781,00,98,47
3780,00,98,47
3779,00,98,48
3778,00,98,48
3777,00,98,48
3776,00,98,47
3775,00,98,46
3774,00,98,45
3773,00,98,45
3772,00,98,46
3771,00,98,47
3770,00,98,48
3769,00,98,47
3768,00,98,47
3767,00,98,47
3766,00,98,47
3765,00,98,47
3764,00,98,46
3763,00,98,45
3762,00,98,45
3761,00,98,45
3760,00,98,46
3759,00,98,47
3758,00,98,48
3757,00,98,48
3756,00,98,46
3755,00,98,44
3754,00,98,42
3753,00,98,42
3752,00,98,42
3751,00,98,43
3750,00,98,44
3749,00,98,46
3748,00,98,47
3747,00,98,48
3746,00,98,48
3745,00,98,47
3744,00,98,44
3743,00,98,42
3742,00,98,42
3741,00,98,44
3740,00,98,45
3739,00,98,46
3738,00,98,47
3737,00,98,47
3736,00,98,47
3735,00,98,47
3734,00,98,47
3733,00,98,47
3732,00,98,47
3731,00,98,47
3730,00,98,46
3729,00,98,47
3728,00,98,47
3727,00,98,48
3726,00,98,47
3725,00,98,47
3724,00,98,47
3723,00,98,46
3722,00,98,45
3721,00,98,43
3720,00,98,42
3719,00,98,43
3718,00,98,45
3717,00,98,46
3716,00,98,46
3715,00,98,46
3714,00,98,47
3713,00,98,48
3712,00,98,49
3711,00,98,51
3710,00,98,51
3709,00,98,51
3708,00,98,51
3707,00,98,50
3706,00,98,49
3705,00,98,48
3704,00,98,48
3703,00,98,47
3702,00,98,46
3701,00,98,45
3700,00,98,45
3699,00,98,46
3698,00,98,47
3697,00,98,47
3696,00,98,46
3695,00,98,46
3694,00,98,46
3693,00,98,46
3692,00,98,45
3691,00,98,46
3690,00,98,47
3689,00,98,49
3688,00,98,50
3687,00,98,50
3686,00,98,51
3685,00,98,53
3684,00,98,55
3683,00,98,57
3682,00,98,59
3681,00,98,62
3680,00,98,63
3679,00,98,64
3678,00,98,64
3677,00,98,66
3676,00,98,69
3675,00,98,71
3674,00,98,72
3673,00,98,73
3672,00,98,75
3671,00,98,77
3670,00,98,79
3669,00,98,79
3668,00,98,78
3667,00,98,78
3666,00,98,79
3665,00,98,80
3664,00,98,81
3663,00,98,82
3662,00,98,82
3661,00,98,84
3660,00,98,85
3659,00,98,86
3658,00,98,86
3657,00,98,86
3656,00,98,84
3655,00,98,81
3654,00,98,80
3653,00,98,79
3652,00,98,79
3651,00,98,80
3650,00,98,80
3649,00,98,79
3648,00,98,79
3647,00,98,79
3646,00,98,79
3645,00,98,78
3644,00,98,77
3643,00,98,76
3642,00,98,75
3641,00,98,72
3640,00,98,71
3639,00,98,71
3638,00,98,72
3637,00,98,73
3636,00,98,72
3635,00,98,69
3634,00,98,65
3633,00,98,62
3632,00,98,60
3631,00,98,60
3630,00,98,59
3629,00,98,58
3628,00,98,56
3627,00,98,54
3626,00,98,53
3625,00,98,54
3624,00,98,54
3623,00,98,54
3622,00,98,54
3621,00,98,52
3620,00,98,50
3619,00,98,49
3618,00,98,48
3617,00,98,48
3616,00,98,48
3615,00,98,49
3614,00,98,49
3613,00,98,49
3612,00,98,48
3611,00,98,48
3610,00,98,49
3609,00,98,51
3608,00,98,51
3607,00,98,50
3606,00,98,49
3605,00,98,47
3604,00,98,46
3603,00,98,46
3602,00,98,47
3601,00,98,47
3600,00,98,46
3599,00,98,46
3598,00,98,46
3597,00,98,46
3596,00,98,46
3595,00,98,46
3594,00,98,47
3593,00,98,48
3592,00,98,49
3591,00,98,49
3590,00,98,48
3589,00,98,47
3588,00,98,46
3587,00,98,45
3586,00,98,45
3585,00,98,46
3584,00,98,47
3583,00,98,49
3582,00,98,49
3581,00,98,49
3580,00,98,48
3579,00,98,48
3578,00,98,48
3577,00,98,48
3576,00,98,49
3575,00,98,49
3574,00,98,49
3573,00,98,48
3572,00,98,48
3571,00,98,48
3570,00,98,48
3569,00,98,48
3568,00,98,49
3567,00,98,50
3566,00,98,51
3565,00,98,50
3564,00,98,48
3563,00,98,45
3562,00,98,44
3561,00,98,45
3560,00,98,46
3559,00,98,47
3558,00,98,47
3557,00,98,46
3556,00,98,46
3555,00,98,46
3554,00,98,46
3553,00,98,47
3552,00,98,47
3551,00,98,47
3550,00,98,47
3549,00,98,48
3548,00,98,50
3547,00,98,50
3546,00,98,50
3545,00,98,48
3544,00,98,47
3543,00,98,47
3542,00,98,47
3541,00,98,47
3540,00,98,46
3539,00,98,44
3538,00,98,43
3537,00,98,43
3536,00,98,44
3535,00,98,46
3534,00,98,47
3533,00,98,47
3532,00,98,47
3531,00,98,46
3530,00,98,46
3529,00,98,46
3528,00,98,46
3527,00,98,46
3526,00,98,46
3525,00,98,46
3524,00,98,45
3523,00,98,45
3522,00,98,45
3521,00,98,45
3520,00,98,45
3519,00,98,45
3518,00,98,45
3517,00,98,45
3516,00,98,45
3515,00,98,45
3514,00,98,45
3513,00,98,46
3512,00,98,45
3511,00,98,45
3510,00,98,44
3509,00,98,45
3508,00,98,46
3507,00,98,47
3506,00,98,48
3505,00,98,48
3504,00,98,48
3503,00,98,48
3502,00,98,46
3501,00,98,45
3500,00,98,44
3499,00,98,44
3498,00,98,45
3497,00,98,46
3496,00,98,46
3495,00,98,46
3494,00,98,45
3493,00,98,45
3492,00,98,46
3491,00,98,47
3490,00,98,49
3489,00,98,49
3488,00,98,49
3487,00,98,48
3486,00,98,47
3485,00,98,46
3484,00,98,46
3483,00,98,45
3482,00,98,45
3481,00,98,45
3480,00,98,45
3479,00,98,46
3478,00,98,46
3477,00,98,45
3476,00,98,44
3475,00,98,44
3474,00,98,45
3473,00,98,46
3472,00,98,47
3471,00,98,47
3470,00,98,46
3469,00,98,46
3468,00,98,45
3467,00,98,46
3466,00,98,46
3465,00,98,46
3464,00,98,46
3463,00,98,46
3462,00,98,46
3461,00,98,46
3460,00,98,46
3459,00,98,46
3458,00,98,47
3457,00,98,47
3456,00,98,46
3455,00,98,46
3454,00,98,45
3453,00,98,45
3452,00,98,45
3451,00,98,45
3450,00,98,45
3449,00,98,44
3448,00,98,44
3447,00,98,44
3446,00,98,45
3445,00,98,46
3444,00,98,47
3443,00,98,47
3442,00,98,47
3441,00,98,47
3440,00,98,46
3439,00,98,45
3438,00,98,43
3437,00,98,43
3436,00,98,44
3435,00,98,44
3434,00,98,45
3433,00,98,44
3432,00,98,43
3431,00,98,42
3430,00,98,40
3429,00,98,40
3428,00,98,41
3427,00,98,42
3426,00,98,43
3425,00,98,43
3424,00,98,43
3423,00,98,42
3422,00,98,42
3421,00,98,41
3420,00,98,41
3419,00,98,41
3418,00,98,41
3417,00,98,41
3416,00,98,41
3415,00,98,41
3414,00,98,40
3413,00,98,40
3412,00,98,40
3411,00,98,41
3410,00,98,42
3409,00,98,43
3408,00,98,43
3407,00,98,44
3406,00,98,44
3405,00,98,43
3404,00,98,42
3403,00,98,40
3402,00,98,38
3401,00,98,38
3400,00,98,39
3399,00,98,40
3398,00,98,42
3397,00,98,42
3396,00,98,41
3395,00,98,40
3394,00,98,39
3393,00,98,39
3392,00,98,39
3391,00,98,38
3390,00,98,38
3389,00,98,37
3388,00,98,36
3387,00,98,36
3386,00,98,37
3385,00,98,37
3384,00,98,38
3383,00,98,38
3382,00,98,38
3381,00,98,39
3380,00,98,40
3379,00,98,42
3378,00,98,42
3377,00,98,42
3376,00,98,40
3375,00,98,39
3374,00,98,38
3373,00,98,38
3372,00,98,39
3371,00,98,39
3370,00,98,39
3369,00,98,39
3368,00,98,38
3367,00,98,38
3366,00,98,38
3365,00,98,39
3364,00,98,38
3363,00,98,37
3362,00,98,36
3361,00,98,34
3360,00,98,34
3359,00,98,33
3358,00,98,34
3357,00,98,35
3356,00,98,35
3355,00,98,35
3354,00,98,35
3353,00,98,35
3352,00,98,36
3351,00,98,36
3350,00,98,37
3349,00,98,37
3348,00,98,36
3347,00,98,36
3346,00,98,36
3345,00,98,35
3344,00,98,35
3343,00,98,35
3342,00,98,35
3341,00,98,34
3340,00,98,34
3339,00,98,35
3338,00,98,36
3337,00,98,38
3336,00,98,39
3335,00,98,39
3334,00,98,39
3333,00,98,38
3332,00,98,38
3331,00,98,37
3330,00,98,36
3329,00,98,35
3328,00,98,35
3327,00,98,34
3326,00,98,35
3325,00,98,36
3324,00,98,37
3323,00,98,38
3322,00,98,39
3321,00,98,39
3320,00,98,38
3319,00,98,37
3318,00,98,36
3317,00,98,36
3316,00,98,36
3315,00,98,36
3314,00,98,36
3313,00,98,36
3312,00,98,36
3311,00,98,37
3310,00,98,38
3309,00,98,38
3308,00,98,38
3307,00,98,38
3306,00,98,37
3305,00,98,36
3304,00,98,36
3303,00,98,37
3302,00,98,38
3301,00,98,39
3300,00,98,39
3299,00,98,38
3298,00,98,37
3297,00,98,36
3296,00,98,34
3295,00,98,34
3294,00,98,34
3293,00,98,35
3292,00,98,35
3291,00,98,35
3290,00,98,34
3289,00,98,34
3288,00,98,33
3287,00,98,33
3286,00,98,33
3285,00,98,33
3284,00,98,34
3283,00,98,35
3282,00,98,35
3281,00,98,34
3280,00,98,34
3279,00,98,33
3278,00,98,34
3277,00,98,34
3276,00,98,35
3275,00,98,36
3274,00,98,36
3273,00,98,36
3272,00,98,37
3271,00,98,37
3270,00,98,36
3269,00,98,36
3268,00,98,35
3267,00,98,35
3266,00,98,35
3265,00,98,35
3264,00,98,34
3263,00,98,34
3262,00,98,34
3261,00,98,34
3260,00,98,35
3259,00,98,35
3258,00,98,35
3257,00,98,35
3256,00,98,36
3255,00,98,37
3254,00,98,37
3253,00,98,37
3252,00,98,36
3251,00,98,36
3250,00,98,36
3249,00,98,36
3248,00,98,37
3247,00,98,37
3246,00,98,37
3245,00,98,36
3244,00,98,36
3243,00,98,36
3242,00,98,36
3241,00,98,36
3240,00,98,35
3239,00,98,35
3238,00,98,35
3237,00,98,35
3236,00,98,36
3235,00,98,37
3234,00,98,38
3233,00,98,39
3232,00,98,39
3231,00,98,37
3230,00,98,36
3229,00,98,36
3228,00,98,36
3227,00,98,35
3226,00,98,35
3225,00,98,34
3224,00,98,34
3223,00,98,34
3222,00,98,34
3221,00,98,35
3220,00,98,35
3219,00,98,35
3218,00,98,35
3217,00,98,35
3216,00,98,35
3215,00,98,34
3214,00,98,33
3213,00,98,33
3212,00,98,33
3211,00,98,34
3210,00,98,36
3209,00,98,37
3208,00,98,36
3207,00,98,35
3206,00,98,33
3205,00,98,32
3204,00,98,32
3203,00,98,32
3202,00,98,33
3201,00,98,33
3200,00,98,33
3199,00,98,34
3198,00,98,35
3197,00,98,35
3196,00,98,35
3195,00,98,34
3194,00,98,34
3193,00,98,34
3192,00,98,34
3191,00,98,35
3190,00,98,36
3189,00,98,37
3188,00,98,38
3187,00,98,38
3186,00,98,37
3185,00,98,36
3184,00,98,35
3183,00,98,35
3182,00,98,36
3181,00,98,36
3180,00,98,36
3179,00,98,36
3178,00,98,35
3177,00,98,34
3176,00,98,32
3175,00,98,32
3174,00,98,32
3173,00,98,33
3172,00,98,33
3171,00,98,33
3170,00,98,32
3169,00,98,32
3168,00,98,33
3167,00,98,34
3166,00,98,34
3165,00,98,34
3164,00,98,32
3163,00,98,31
3162,00,98,30
3161,00,98,30
3160,00,98,30
3159,00,98,31
3158,00,98,31
3157,00,98,30
3156,00,98,29
3155,00,98,28
3154,00,98,28
3153,00,98,29
3152,00,98,30
3151,00,98,31
3150,00,98,32
3149,00,98,33
3148,00,98,33
3147,00,98,32
3146,00,98,32
3145,00,98,32
3144,00,98,32
3143,00,98,32
3142,00,98,31
3141,00,98,31
3140,00,98,30
3139,00,98,29
3138,00,98,30
3137,00,98,30
3136,00,98,30
3135,00,98,29
3134,00,98,28
3133,00,98,29
3132,00,98,30
3131,00,98,32
3130,00,98,33
3129,00,98,32
3128,00,98,32
3127,00,98,31
3126,00,98,30
3125,00,98,30
3124,00,98,31
3123,00,98,32
3122,00,98,32
3121,00,98,32
3120,00,98,31
3119,00,98,31
3118,00,98,31
3117,00,98,31
3116,00,98,30
3115,00,98,30
3114,00,98,31
3113,00,98,31
3112,00,98,31
3111,00,98,31
3110,00,98,31
3109,00,98,32
3108,00,98,32
3107,00,98,32
3106,00,98,32
3105,00,98,33
3104,00,98,33
3103,00,98,32
3102,00,98,30
3101,00,98,30
3100,00,98,30
3099,00,98,30
3098,00,98,30
3097,00,98,29
3096,00,98,29
3095,00,98,29
3094,00,98,29
3093,00,98,28
3092,00,98,27
3091,00,98,25
3090,00,98,25
3089,00,98,24
3088,00,98,24
3087,00,98,24
3086,00,98,23
3085,00,98,22
3084,00,98,20
3083,00,98,20
3082,00,98,19
3081,00,98,19
3080,00,98,19
3079,00,98,19
3078,00,98,19
3077,00,98,21
3076,00,98,22
3075,00,98,22
3074,00,98,22
3073,00,98,22
3072,00,98,22
3071,00,98,22
3070,00,98,22
3069,00,98,22
3068,00,98,22
3067,00,98,21
3066,00,98,20
3065,00,98,20
3064,00,98,21
3063,00,98,23
3062,00,98,24
3061,00,98,25
3060,00,98,25
3059,00,98,26
3058,00,98,27
3057,00,98,27
3056,00,98,26
3055,00,98,25
3054,00,98,23
3053,00,98,22
3052,00,98,21
3051,00,98,19
3050,00,98,17
3049,00,98,16
3048,00,98,16
3047,00,98,16
3046,00,98,16
3045,00,98,15
3044,00,98,14
3043,00,98,12
3042,00,98,12
3041,00,98,14
3040,00,98,17
3039,00,98,20
3038,00,98,21
3037,00,98,21
3036,00,98,21
3035,00,98,22
3034,00,98,24
3033,00,98,26
3032,00,98,27
3031,00,98,28
3030,00,98,28
3029,00,98,28
3028,00,98,30
3027,00,98,32
3026,00,98,34
3025,00,98,35
3024,00,98,36
3023,00,98,37
3022,00,98,38
3021,00,98,40
3020,00,98,42
3019,00,98,44
3018,00,98,46
3017,00,98,47
3016,00,98,49
3015,00,98,53
3014,00,98,57
3013,00,98,63
3012,00,98,70
3011,00,98,77
3010,00,98,84
3009,00,98,91
3008,00,99,00
3007,00,99,09
3006,00,99,20
3005,00,99,31
3004,00,99,42
3003,00,99,55
3002,00,99,66
3001,00,99,77
3000,00,99,87
2999,00,99,95
2998,00,100,03
2997,00,100,10
2996,00,100,17
2995,00,100,22
2994,00,100,27
2993,00,100,30
2992,00,100,33
2991,00,100,34
2990,00,100,36
2989,00,100,38
2988,00,100,41
2987,00,100,47
2986,00,100,59
2985,00,100,80
2984,00,101,13
2983,00,101,49
2982,00,101,75
2981,00,101,78
2980,00,101,59
2979,00,101,28
2978,00,100,97
2977,00,100,69
2976,00,100,47
2975,00,100,30
2974,00,100,19
2973,00,100,10
2972,00,99,99
2971,00,99,79
2970,00,99,48
2969,00,99,11
2968,00,98,75
2967,00,98,42
2966,00,98,12
2965,00,97,84
2964,00,97,58
2963,00,97,34
2962,00,97,14
2961,00,96,97
2960,00,96,84
2959,00,96,74
2958,00,96,68
2957,00,96,66
2956,00,96,67
2955,00,96,70
2954,00,96,75
2953,00,96,82
2952,00,96,90
2951,00,96,99
2950,00,97,07
2949,00,97,14
2948,00,97,18
2947,00,97,19
2946,00,97,16
2945,00,97,10
2944,00,97,02
2943,00,96,92
2942,00,96,81
2941,00,96,69
2940,00,96,56
2939,00,96,42
2938,00,96,27
2937,00,96,12
2936,00,95,99
2935,00,95,87
2934,00,95,77
2933,00,95,67
2932,00,95,59
2931,00,95,52
2930,00,95,46
2929,00,95,41
2928,00,95,38
2927,00,95,37
2926,00,95,37
2925,00,95,39
2924,00,95,43
2923,00,95,49
2922,00,95,55
2921,00,95,62
2920,00,95,69
2919,00,95,76
2918,00,95,85
2917,00,95,95
2916,00,96,04
2915,00,96,14
2914,00,96,23
2913,00,96,32
2912,00,96,40
2911,00,96,49
2910,00,96,59
2909,00,96,70
2908,00,96,81
2907,00,96,89
2906,00,96,97
2905,00,97,06
2904,00,97,14
2903,00,97,23
2902,00,97,30
2901,00,97,37
2900,00,97,42
2899,00,97,48
2898,00,97,54
2897,00,97,61
2896,00,97,68
2895,00,97,75
2894,00,97,81
2893,00,97,87
2892,00,97,92
2891,00,97,97
2890,00,98,01
2889,00,98,03
2888,00,98,02
2887,00,98,01
2886,00,97,98
2885,00,97,96
2884,00,97,91
2883,00,97,82
2882,00,97,70
2881,00,97,54
2880,00,97,36
2879,00,97,18
2878,00,97,01
2877,00,96,84
2876,00,96,69
2875,00,96,56
2874,00,96,47
2873,00,96,42
2872,00,96,40
2871,00,96,42
2870,00,96,45
2869,00,96,48
2868,00,96,51
2867,00,96,52
2866,00,96,52
2865,00,96,49
2864,00,96,44
2863,00,96,38
2862,00,96,32
2861,00,96,29
2860,00,96,28
2859,00,96,29
2858,00,96,33
2857,00,96,38
2856,00,96,45
2855,00,96,54
2854,00,96,64
2853,00,96,73
2852,00,96,83
2851,00,96,93
2850,00,97,03
2849,00,97,13
2848,00,97,21
2847,00,97,29
2846,00,97,37
2845,00,97,44
2844,00,97,50
2843,00,97,55
2842,00,97,60
2841,00,97,64
2840,00,97,67
2839,00,97,71
2838,00,97,74
2837,00,97,77
2836,00,97,79
2835,00,97,81
2834,00,97,82
2833,00,97,83
2832,00,97,85
2831,00,97,87
2830,00,97,88
2829,00,97,90
2828,00,97,92
2827,00,97,92
2826,00,97,93
2825,00,97,93
2824,00,97,93
2823,00,97,94
2822,00,97,95
2821,00,97,95
2820,00,97,96
2819,00,97,98
2818,00,97,99
2817,00,98,00
2816,00,98,00
2815,00,98,00
2814,00,98,01
2813,00,98,02
2812,00,98,02
2811,00,98,03
2810,00,98,03
2809,00,98,03
2808,00,98,04
2807,00,98,05
2806,00,98,05
2805,00,98,05
2804,00,98,06
2803,00,98,07
2802,00,98,07
2801,00,98,08
2800,00,98,08
2799,00,98,08
2798,00,98,08
2797,00,98,08
2796,00,98,08
2795,00,98,08
2794,00,98,09
2793,00,98,09
2792,00,98,09
2791,00,98,09
2790,00,98,09
2789,00,98,08
2788,00,98,08
2787,00,98,08
2786,00,98,09
2785,00,98,09
2784,00,98,08
2783,00,98,08
2782,00,98,08
2781,00,98,09
2780,00,98,10
2779,00,98,10
2778,00,98,11
2777,00,98,11
2776,00,98,11
2775,00,98,11
2774,00,98,12
2773,00,98,12
2772,00,98,13
2771,00,98,13
2770,00,98,12
2769,00,98,12
2768,00,98,11
2767,00,98,11
2766,00,98,10
2765,00,98,10
2764,00,98,10
2763,00,98,11
2762,00,98,12
2761,00,98,13
2760,00,98,13
2759,00,98,13
2758,00,98,12
2757,00,98,12
2756,00,98,11
2755,00,98,11
2754,00,98,11
2753,00,98,10
2752,00,98,10
2751,00,98,10
2750,00,98,11
2749,00,98,13
2748,00,98,14
2747,00,98,14
2746,00,98,13
2745,00,98,13
2744,00,98,13
2743,00,98,13
2742,00,98,13
2741,00,98,13
2740,00,98,13
2739,00,98,13
2738,00,98,13
2737,00,98,13
2736,00,98,13
2735,00,98,12
2734,00,98,12
2733,00,98,11
2732,00,98,11
2731,00,98,10
2730,00,98,10
2729,00,98,10
2728,00,98,10
2727,00,98,11
2726,00,98,12
2725,00,98,13
2724,00,98,13
2723,00,98,13
2722,00,98,13
2721,00,98,13
2720,00,98,13
2719,00,98,13
2718,00,98,13
2717,00,98,13
2716,00,98,13
2715,00,98,14
2714,00,98,15
2713,00,98,15
2712,00,98,15
2711,00,98,15
2710,00,98,14
2709,00,98,14
2708,00,98,13
2707,00,98,13
2706,00,98,13
2705,00,98,13
2704,00,98,14
2703,00,98,14
2702,00,98,14
2701,00,98,14
2700,00,98,14
2699,00,98,14
2698,00,98,13
2697,00,98,13
2696,00,98,13
2695,00,98,13
2694,00,98,14
2693,00,98,15
2692,00,98,15
2691,00,98,16
2690,00,98,16
2689,00,98,16
2688,00,98,16
2687,00,98,16
2686,00,98,17
2685,00,98,17
2684,00,98,16
2683,00,98,16
2682,00,98,17
2681,00,98,17
2680,00,98,18
2679,00,98,18
2678,00,98,17
2677,00,98,17
2676,00,98,17
2675,00,98,17
2674,00,98,17
2673,00,98,18
2672,00,98,18
2671,00,98,18
2670,00,98,18
2669,00,98,18
2668,00,98,19
2667,00,98,19
2666,00,98,20
2665,00,98,19
2664,00,98,18
2663,00,98,17
2662,00,98,16
2661,00,98,17
2660,00,98,17
2659,00,98,17
2658,00,98,16
2657,00,98,15
2656,00,98,15
2655,00,98,14
2654,00,98,14
2653,00,98,14
2652,00,98,15
2651,00,98,14
2650,00,98,14
2649,00,98,13
2648,00,98,13
2647,00,98,12
2646,00,98,12
2645,00,98,13
2644,00,98,13
2643,00,98,13
2642,00,98,13
2641,00,98,13
2640,00,98,13
2639,00,98,14
2638,00,98,14
2637,00,98,14
2636,00,98,13
2635,00,98,12
2634,00,98,11
2633,00,98,11
2632,00,98,11
2631,00,98,12
2630,00,98,13
2629,00,98,13
2628,00,98,12
2627,00,98,11
2626,00,98,11
2625,00,98,11
2624,00,98,10
2623,00,98,10
2622,00,98,11
2621,00,98,12
2620,00,98,12
2619,00,98,11
2618,00,98,10
2617,00,98,09
2616,00,98,09
2615,00,98,09
2614,00,98,09
2613,00,98,10
2612,00,98,10
2611,00,98,10
2610,00,98,09
2609,00,98,08
2608,00,98,08
2607,00,98,09
2606,00,98,10
2605,00,98,10
2604,00,98,10
2603,00,98,10
2602,00,98,10
2601,00,98,11
2600,00,98,11
2599,00,98,09
2598,00,98,07
2597,00,98,06
2596,00,98,06
2595,00,98,07
2594,00,98,07
2593,00,98,07
2592,00,98,07
2591,00,98,06
2590,00,98,06
2589,00,98,06
2588,00,98,06
2587,00,98,06
2586,00,98,06
2585,00,98,06
2584,00,98,06
2583,00,98,07
2582,00,98,07
2581,00,98,09
2580,00,98,10
2579,00,98,10
2578,00,98,09
2577,00,98,07
2576,00,98,08
2575,00,98,09
2574,00,98,10
2573,00,98,10
2572,00,98,10
2571,00,98,10
2570,00,98,09
2569,00,98,08
2568,00,98,07
2567,00,98,07
2566,00,98,07
2565,00,98,07
2564,00,98,07
2563,00,98,07
2562,00,98,07
2561,00,98,07
2560,00,98,07
2559,00,98,07
2558,00,98,06
2557,00,98,07
2556,00,98,08
2555,00,98,11
2554,00,98,12
2553,00,98,11
2552,00,98,09
2551,00,98,08
2550,00,98,07
2549,00,98,06
2548,00,98,07
2547,00,98,08
2546,00,98,08
2545,00,98,08
2544,00,98,07
2543,00,98,08
2542,00,98,09
2541,00,98,09
2540,00,98,09
2539,00,98,09
2538,00,98,09
2537,00,98,09
2536,00,98,09
2535,00,98,09
2534,00,98,10
2533,00,98,11
2532,00,98,12
2531,00,98,11
2530,00,98,11
2529,00,98,11
2528,00,98,11
2527,00,98,11
2526,00,98,10
2525,00,98,09
2524,00,98,09
2523,00,98,08
2522,00,98,07
2521,00,98,07
2520,00,98,06
2519,00,98,06
2518,00,98,07
2517,00,98,09
2516,00,98,11
2515,00,98,12
2514,00,98,12
2513,00,98,12
2512,00,98,12
2511,00,98,12
2510,00,98,12
2509,00,98,12
2508,00,98,12
2507,00,98,12
2506,00,98,12
2505,00,98,13
2504,00,98,14
2503,00,98,14
2502,00,98,14
2501,00,98,14
2500,00,98,14
2499,00,98,14
2498,00,98,14
2497,00,98,13
2496,00,98,12
2495,00,98,11
2494,00,98,11
2493,00,98,10
2492,00,98,11
2491,00,98,12
2490,00,98,14
2489,00,98,15
2488,00,98,16
2487,00,98,15
2486,00,98,15
2485,00,98,14
2484,00,98,14
2483,00,98,15
2482,00,98,16
2481,00,98,16
2480,00,98,16
2479,00,98,15
2478,00,98,14
2477,00,98,14
2476,00,98,14
2475,00,98,15
2474,00,98,16
2473,00,98,16
2472,00,98,17
2471,00,98,17
2470,00,98,16
2469,00,98,15
2468,00,98,14
2467,00,98,14
2466,00,98,14
2465,00,98,15
2464,00,98,16
2463,00,98,16
2462,00,98,15
2461,00,98,13
2460,00,98,10
2459,00,98,09
2458,00,98,09
2457,00,98,11
2456,00,98,12
2455,00,98,12
2454,00,98,13
2453,00,98,13
2452,00,98,14
2451,00,98,14
2450,00,98,15
2449,00,98,15
2448,00,98,14
2447,00,98,14
2446,00,98,13
2445,00,98,14
2444,00,98,14
2443,00,98,15
2442,00,98,15
2441,00,98,15
2440,00,98,15
2439,00,98,15
2438,00,98,14
2437,00,98,13
2436,00,98,13
2435,00,98,14
2434,00,98,15
2433,00,98,15
2432,00,98,14
2431,00,98,14
2430,00,98,13
2429,00,98,12
2428,00,98,12
2427,00,98,13
2426,00,98,14
2425,00,98,14
2424,00,98,14
2423,00,98,13
2422,00,98,13
2421,00,98,14
2420,00,98,16
2419,00,98,18
2418,00,98,18
2417,00,98,16
2416,00,98,15
2415,00,98,15
2414,00,98,16
2413,00,98,17
2412,00,98,18
2411,00,98,18
2410,00,98,18
2409,00,98,18
2408,00,98,18
2407,00,98,19
2406,00,98,20
2405,00,98,20
2404,00,98,19
2403,00,98,19
2402,00,98,19
2401,00,98,19
2400,00,98,19
2399,00,98,19
2398,00,98,19
2397,00,98,19
2396,00,98,19
2395,00,98,19
2394,00,98,20
2393,00,98,21
2392,00,98,22
2391,00,98,22
2390,00,98,21
2389,00,98,21
2388,00,98,21
2387,00,98,21
2386,00,98,23
2385,00,98,26
2384,00,98,28
2383,00,98,28
2382,00,98,28
2381,00,98,28
2380,00,98,27
2379,00,98,27
2378,00,98,27
2377,00,98,28
2376,00,98,30
2375,00,98,32
2374,00,98,33
2373,00,98,31
2372,00,98,30
2371,00,98,30
2370,00,98,31
2369,00,98,31
2368,00,98,31
2367,00,98,31
2366,00,98,31
2365,00,98,33
2364,00,98,34
2363,00,98,33
2362,00,98,29
2361,00,98,26
2360,00,98,27
2359,00,98,31
2358,00,98,33
2357,00,98,33
2356,00,98,31
2355,00,98,31
2354,00,98,32
2353,00,98,32
2352,00,98,31
2351,00,98,31
2350,00,98,31
2349,00,98,31
2348,00,98,30
2347,00,98,30
2346,00,98,30
2345,00,98,30
2344,00,98,30
2343,00,98,29
2342,00,98,25
2341,00,98,22
2340,00,98,21
2339,00,98,23
2338,00,98,25
2337,00,98,27
2336,00,98,29
2335,00,98,33
2334,00,98,34
2333,00,98,32
2332,00,98,28
2331,00,98,25
2330,00,98,24
2329,00,98,25
2328,00,98,27
2327,00,98,28
2326,00,98,26
2325,00,98,21
2324,00,98,17
2323,00,98,16
2322,00,98,17
2321,00,98,17
2320,00,98,17
2319,00,98,17
2318,00,98,17
2317,00,98,17
2316,00,98,17
2315,00,98,16
2314,00,98,16
2313,00,98,16
2312,00,98,17
2311,00,98,18
2310,00,98,18
2309,00,98,16
2308,00,98,12
2307,00,98,10
2306,00,98,09
2305,00,98,09
2304,00,98,09
2303,00,98,10
2302,00,98,09
2301,00,98,08
2300,00,98,06
2299,00,98,04
2298,00,98,02
2297,00,98,00
2296,00,97,98
2295,00,97,97
2294,00,97,95
2293,00,97,91
2292,00,97,86
2291,00,97,82
2290,00,97,80
2289,00,97,79
2288,00,97,77
2287,00,97,73
2286,00,97,69
2285,00,97,66
2284,00,97,64
2283,00,97,63
2282,00,97,62
2281,00,97,61
2280,00,97,58
2279,00,97,54
2278,00,97,49
2277,00,97,45
2276,00,97,42
2275,00,97,39
2274,00,97,34
2273,00,97,27
2272,00,97,22
2271,00,97,17
2270,00,97,12
2269,00,97,05
2268,00,96,97
2267,00,96,90
2266,00,96,81
2265,00,96,73
2264,00,96,66
2263,00,96,59
2262,00,96,51
2261,00,96,42
2260,00,96,32
2259,00,96,22
2258,00,96,12
2257,00,96,03
2256,00,95,94
2255,00,95,86
2254,00,95,78
2253,00,95,70
2252,00,95,60
2251,00,95,51
2250,00,95,41
2249,00,95,32
2248,00,95,26
2247,00,95,22
2246,00,95,19
2245,00,95,15
2244,00,95,11
2243,00,95,09
2242,00,95,07
2241,00,95,06
2240,00,95,05
2239,00,95,04
2238,00,95,03
2237,00,95,02
2236,00,95,04
2235,00,95,06
2234,00,95,07
2233,00,95,08
2232,00,95,09
2231,00,95,12
2230,00,95,15
2229,00,95,16
2228,00,95,16
2227,00,95,15
2226,00,95,14
2225,00,95,14
2224,00,95,15
2223,00,95,14
2222,00,95,12
2221,00,95,08
2220,00,95,04
2219,00,95,02
2218,00,95,00
2217,00,94,96
2216,00,94,90
2215,00,94,82
2214,00,94,75
2213,00,94,69
2212,00,94,63
2211,00,94,56
2210,00,94,46
2209,00,94,36
2208,00,94,26
2207,00,94,13
2206,00,93,98
2205,00,93,81
2204,00,93,65
2203,00,93,52
2202,00,93,42
2201,00,93,33
2200,00,93,22
2199,00,93,09
2198,00,92,96
2197,00,92,86
2196,00,92,76
2195,00,92,65
2194,00,92,53
2193,00,92,42
2192,00,92,33
2191,00,92,26
2190,00,92,17
2189,00,92,08
2188,00,92,01
2187,00,91,96
2186,00,91,93
2185,00,91,92
2184,00,91,93
2183,00,91,96
2182,00,92,01
2181,00,92,08
2180,00,92,15
2179,00,92,23
2178,00,92,33
2177,00,92,47
2176,00,92,63
2175,00,92,78
2174,00,92,93
2173,00,93,08
2172,00,93,25
2171,00,93,39
2170,00,93,53
2169,00,93,68
2168,00,93,85
2167,00,94,02
2166,00,94,19
2165,00,94,36
2164,00,94,54
2163,00,94,70
2162,00,94,85
2161,00,95,02
2160,00,95,24
2159,00,95,50
2158,00,95,75
2157,00,95,95
2156,00,96,10
2155,00,96,23
2154,00,96,35
2153,00,96,46
2152,00,96,55
2151,00,96,63
2150,00,96,68
2149,00,96,72
2148,00,96,78
2147,00,96,86
2146,00,96,94
2145,00,97,00
2144,00,97,05
2143,00,97,10
2142,00,97,14
2141,00,97,17
2140,00,97,19
2139,00,97,22
2138,00,97,27
2137,00,97,32
2136,00,97,36
2135,00,97,41
2134,00,97,47
2133,00,97,51
2132,00,97,52
2131,00,97,51
2130,00,97,50
2129,00,97,50
2128,00,97,51
2127,00,97,52
2126,00,97,53
2125,00,97,55
2124,00,97,58
2123,00,97,61
2122,00,97,61
2121,00,97,60
2120,00,97,58
2119,00,97,58
2118,00,97,59
2117,00,97,62
2116,00,97,64
2115,00,97,66
2114,00,97,66
2113,00,97,65
2112,00,97,64
2111,00,97,64
2110,00,97,65
2109,00,97,66
2108,00,97,67
2107,00,97,67
2106,00,97,69
2105,00,97,73
2104,00,97,76
2103,00,97,78
2102,00,97,76
2101,00,97,74
2100,00,97,74
2099,00,97,76
2098,00,97,79
2097,00,97,80
2096,00,97,81
2095,00,97,82
2094,00,97,84
2093,00,97,85
2092,00,97,85
2091,00,97,84
2090,00,97,82
2089,00,97,81
2088,00,97,80
2087,00,97,78
2086,00,97,77
2085,00,97,77
2084,00,97,79
2083,00,97,81
2082,00,97,83
2081,00,97,84
2080,00,97,84
2079,00,97,85
2078,00,97,84
2077,00,97,81
2076,00,97,79
2075,00,97,78
2074,00,97,78
2073,00,97,78
2072,00,97,79
2071,00,97,80
2070,00,97,82
2069,00,97,84
2068,00,97,86
2067,00,97,88
2066,00,97,88
2065,00,97,87
2064,00,97,86
2063,00,97,88
2062,00,97,89
2061,00,97,89
2060,00,97,89
2059,00,97,90
2058,00,97,90
2057,00,97,88
2056,00,97,86
2055,00,97,86
2054,00,97,87
2053,00,97,86
2052,00,97,83
2051,00,97,80
2050,00,97,80
2049,00,97,82
2048,00,97,86
2047,00,97,89
2046,00,97,92
2045,00,97,95
2044,00,97,97
2043,00,97,97
2042,00,97,95
2041,00,97,91
2040,00,97,87
2039,00,97,86
2038,00,97,90
2037,00,97,94
2036,00,97,96
2035,00,97,95
2034,00,97,94
2033,00,97,96
2032,00,97,99
2031,00,98,01
2030,00,98,01
2029,00,97,99
2028,00,97,97
2027,00,97,97
2026,00,97,97
2025,00,97,98
2024,00,97,99
2023,00,98,00
2022,00,97,99
2021,00,97,98
2020,00,97,98
2019,00,98,01
2018,00,98,01
2017,00,97,99
2016,00,97,99
2015,00,98,02
2014,00,98,05
2013,00,98,03
2012,00,98,00
2011,00,97,98
2010,00,97,97
2009,00,97,96
2008,00,97,97
2007,00,98,02
2006,00,98,06
2005,00,98,06
2004,00,98,03
2003,00,98,01
2002,00,98,00
2001,00,98,01
2000,00,98,02
1999,00,98,04
1998,00,98,06
1997,00,98,05
1996,00,97,99
1995,00,97,94
1994,00,97,92
1993,00,97,94
1992,00,97,97
1991,00,98,01
1990,00,98,02
1989,00,97,97
1988,00,97,90
1987,00,97,88
1986,00,97,92
1985,00,97,96
1984,00,97,98
1983,00,97,97
1982,00,97,97
1981,00,97,94
1980,00,97,90
1979,00,97,86
1978,00,97,89
1977,00,97,98
1976,00,98,05
1975,00,98,09
1974,00,98,08
1973,00,98,04
1972,00,98,01
1971,00,98,00
1970,00,98,06
1969,00,98,14
1968,00,98,19
1967,00,98,18
1966,00,98,15
1965,00,98,13
1964,00,98,12
1963,00,98,10
1962,00,98,07
1961,00,98,07
1960,00,98,10
1959,00,98,14
1958,00,98,15
1957,00,98,14
1956,00,98,11
1955,00,98,09
1954,00,98,11
1953,00,98,14
1952,00,98,16
1951,00,98,14
1950,00,98,11
1949,00,98,09
1948,00,98,08
1947,00,98,09
1946,00,98,08
1945,00,98,08
1944,00,98,08
1943,00,98,08
1942,00,98,09
1941,00,98,10
1940,00,98,12
1939,00,98,13
1938,00,98,14
1937,00,98,14
1936,00,98,15
1935,00,98,15
1934,00,98,16
1933,00,98,15
1932,00,98,15
1931,00,98,15
1930,00,98,14
1929,00,98,12
1928,00,98,11
1927,00,98,12
1926,00,98,12
1925,00,98,13
1924,00,98,13
1923,00,98,12
1922,00,98,11
1921,00,98,10
1920,00,98,11
1919,00,98,12
1918,00,98,11
1917,00,98,11
1916,00,98,11
1915,00,98,12
1914,00,98,12
1913,00,98,11
1912,00,98,10
1911,00,98,10
1910,00,98,09
1909,00,98,07
1908,00,98,05
1907,00,98,06
1906,00,98,07
1905,00,98,06
1904,00,98,05
1903,00,98,04
1902,00,98,05
1901,00,98,07
1900,00,98,08
1899,00,98,07
1898,00,98,05
1897,00,98,02
1896,00,98,00
1895,00,98,00
1894,00,98,01
1893,00,98,01
1892,00,98,02
1891,00,98,03
1890,00,98,04
1889,00,98,05
1888,00,98,06
1887,00,98,06
1886,00,98,04
1885,00,98,02
1884,00,98,02
1883,00,98,04
1882,00,98,05
1881,00,98,05
1880,00,98,05
1879,00,98,06
1878,00,98,08
1877,00,98,08
1876,00,98,07
1875,00,98,07
1874,00,98,08
1873,00,98,08
1872,00,98,08
1871,00,98,07
1870,00,98,07
1869,00,98,07
1868,00,98,07
1867,00,98,07
1866,00,98,08
1865,00,98,08
1864,00,98,10
1863,00,98,12
1862,00,98,14
1861,00,98,12
1860,00,98,10
1859,00,98,10
1858,00,98,12
1857,00,98,13
1856,00,98,13
1855,00,98,13
1854,00,98,13
1853,00,98,12
1852,00,98,11
1851,00,98,11
1850,00,98,12
1849,00,98,14
1848,00,98,16
1847,00,98,17
1846,00,98,17
1845,00,98,15
1844,00,98,12
1843,00,98,11
1842,00,98,10
1841,00,98,10
1840,00,98,11
1839,00,98,12
1838,00,98,12
1837,00,98,12
1836,00,98,11
1835,00,98,11
1834,00,98,12
1833,00,98,12
1832,00,98,12
1831,00,98,11
1830,00,98,11
1829,00,98,11
1828,00,98,11
1827,00,98,11
1826,00,98,11
1825,00,98,11
1824,00,98,10
1823,00,98,10
1822,00,98,10
1821,00,98,11
1820,00,98,11
1819,00,98,11
1818,00,98,12
1817,00,98,13
1816,00,98,12
1815,00,98,11
1814,00,98,10
1813,00,98,09
1812,00,98,09
1811,00,98,08
1810,00,98,09
1809,00,98,09
1808,00,98,10
1807,00,98,11
1806,00,98,13
1805,00,98,13
1804,00,98,11
1803,00,98,10
1802,00,98,10
1801,00,98,11
1800,00,98,11
1799,00,98,11
1798,00,98,11
1797,00,98,10
1796,00,98,09
1795,00,98,10
1794,00,98,11
1793,00,98,11
1792,00,98,10
1791,00,98,09
1790,00,98,08
1789,00,98,08
1788,00,98,08
1787,00,98,09
1786,00,98,10
1785,00,98,11
1784,00,98,11
1783,00,98,11
1782,00,98,11
1781,00,98,11
1780,00,98,10
1779,00,98,10
1778,00,98,10
1777,00,98,10
1776,00,98,11
1775,00,98,10
1774,00,98,10
1773,00,98,11
1772,00,98,12
1771,00,98,13
1770,00,98,12
1769,00,98,11
1768,00,98,10
1767,00,98,10
1766,00,98,10
1765,00,98,10
1764,00,98,09
1763,00,98,08
1762,00,98,08
1761,00,98,09
1760,00,98,10
1759,00,98,10
1758,00,98,10
1757,00,98,09
1756,00,98,09
1755,00,98,09
1754,00,98,11
1753,00,98,12
1752,00,98,12
1751,00,98,10
1750,00,98,09
1749,00,98,09
1748,00,98,10
1747,00,98,11
1746,00,98,10
1745,00,98,09
1744,00,98,08
1743,00,98,07
1742,00,98,07
1741,00,98,07
1740,00,98,07
1739,00,98,08
1738,00,98,09
1737,00,98,10
1736,00,98,10
1735,00,98,09
1734,00,98,09
1733,00,98,10
1732,00,98,10
1731,00,98,11
1730,00,98,11
1729,00,98,11
1728,00,98,11
1727,00,98,11
1726,00,98,10
1725,00,98,09
1724,00,98,08
1723,00,98,10
1722,00,98,12
1721,00,98,13
1720,00,98,13
1719,00,98,13
1718,00,98,13
1717,00,98,12
1716,00,98,10
1715,00,98,10
1714,00,98,12
1713,00,98,12
1712,00,98,11
1711,00,98,11
1710,00,98,11
1709,00,98,12
1708,00,98,12
1707,00,98,12
1706,00,98,12
1705,00,98,12
1704,00,98,11
1703,00,98,11
1702,00,98,11
1701,00,98,11
1700,00,98,11
1699,00,98,14
1698,00,98,17
1697,00,98,17
1696,00,98,15
1695,00,98,13
1694,00,98,12
1693,00,98,12
1692,00,98,13
1691,00,98,14
1690,00,98,14
1689,00,98,14
1688,00,98,13
1687,00,98,12
1686,00,98,10
1685,00,98,08
1684,00,98,09
1683,00,98,10
1682,00,98,11
1681,00,98,11
1680,00,98,11
1679,00,98,11
1678,00,98,11
1677,00,98,11
1676,00,98,11
1675,00,98,11
1674,00,98,10
1673,00,98,10
1672,00,98,10
1671,00,98,10
1670,00,98,10
1669,00,98,11
1668,00,98,12
1667,00,98,13
1666,00,98,13
1665,00,98,13
1664,00,98,13
1663,00,98,14
1662,00,98,14
1661,00,98,15
1660,00,98,15
1659,00,98,15
1658,00,98,15
1657,00,98,15
1656,00,98,16
1655,00,98,17
1654,00,98,18
1653,00,98,18
1652,00,98,18
1651,00,98,18
1650,00,98,18
1649,00,98,18
1648,00,98,17
1647,00,98,18
1646,00,98,18
1645,00,98,18
1644,00,98,18
1643,00,98,19
1642,00,98,21
1641,00,98,22
1640,00,98,23
1639,00,98,23
1638,00,98,23
1637,00,98,24
1636,00,98,26
1635,00,98,27
1634,00,98,26
1633,00,98,25
1632,00,98,25
1631,00,98,26
1630,00,98,26
1629,00,98,26
1628,00,98,25
1627,00,98,24
1626,00,98,21
1625,00,98,18
1624,00,98,15
1623,00,98,12
1622,00,98,08
1621,00,98,01
1620,00,97,94
1619,00,97,87
1618,00,97,77
1617,00,97,62
1616,00,97,41
1615,00,97,19
1614,00,96,94
1613,00,96,66
1612,00,96,32
1611,00,95,96
1610,00,95,58
1609,00,95,22
1608,00,94,94
1607,00,94,80
1606,00,94,82
1605,00,94,98
1604,00,95,23
1603,00,95,54
1602,00,95,87
1601,00,96,16
1600,00,96,41
1599,00,96,61
1598,00,96,78
1597,00,96,91
1596,00,97,03
1595,00,97,13
1594,00,97,23
1593,00,97,31
1592,00,97,39
1591,00,97,48
1590,00,97,55
1589,00,97,62
1588,00,97,68
1587,00,97,74
1586,00,97,78
1585,00,97,82
1584,00,97,85
1583,00,97,88
1582,00,97,88
1581,00,97,87
1580,00,97,86
1579,00,97,84
1578,00,97,82
1577,00,97,77
1576,00,97,72
1575,00,97,67
1574,00,97,63
1573,00,97,60
1572,00,97,59
1571,00,97,60
1570,00,97,63
1569,00,97,68
1568,00,97,74
1567,00,97,79
1566,00,97,84
1565,00,97,89
1564,00,97,93
1563,00,97,97
1562,00,98,00
1561,00,98,01
1560,00,98,05
1559,00,98,13
1558,00,98,16
1557,00,98,15
1556,00,98,15
1555,00,98,16
1554,00,98,18
1553,00,98,20
1552,00,98,21
1551,00,98,22
1550,00,98,23
1549,00,98,23
1548,00,98,23
1547,00,98,24
1546,00,98,25
1545,00,98,24
1544,00,98,22
1543,00,98,21
1542,00,98,20
1541,00,98,16
1540,00,98,06
1539,00,97,88
1538,00,97,66
1537,00,97,43
1536,00,97,19
1535,00,96,93
1534,00,96,70
1533,00,96,57
1532,00,96,58
1531,00,96,69
1530,00,96,86
1529,00,97,05
1528,00,97,23
1527,00,97,37
1526,00,97,49
1525,00,97,58
1524,00,97,63
1523,00,97,66
1522,00,97,71
1521,00,97,78
1520,00,97,83
1519,00,97,88
1518,00,97,91
1517,00,97,92
1516,00,97,91
1515,00,97,87
1514,00,97,84
1513,00,97,81
1512,00,97,76
1511,00,97,73
1510,00,97,70
1509,00,97,67
1508,00,97,58
1507,00,97,41
1506,00,97,14
1505,00,96,78
1504,00,96,31
1503,00,95,67
1502,00,94,82
1501,00,93,83
1500,00,92,89
1499,00,92,26
1498,00,92,08
1497,00,92,44
1496,00,93,21
1495,00,94,09
1494,00,94,84
1493,00,95,43
1492,00,95,94
1491,00,96,39
1490,00,96,76
1489,00,97,02
1488,00,97,18
1487,00,97,30
1486,00,97,37
1485,00,97,39
1484,00,97,38
1483,00,97,34
1482,00,97,27
1481,00,97,16
1480,00,97,04
1479,00,96,91
1478,00,96,78
1477,00,96,64
1476,00,96,52
1475,00,96,45
1474,00,96,39
1473,00,96,28
1472,00,96,10
1471,00,95,90
1470,00,95,70
1469,00,95,53
1468,00,95,40
1467,00,95,36
1466,00,95,40
1465,00,95,52
1464,00,95,65
1463,00,95,75
1462,00,95,82
1461,00,95,88
1460,00,95,97
1459,00,96,08
1458,00,96,21
1457,00,96,38
1456,00,96,54
1455,00,96,68
1454,00,96,79
1453,00,96,92
1452,00,97,04
1451,00,97,14
1450,00,97,23
1449,00,97,31
1448,00,97,38
1447,00,97,43
1446,00,97,48
1445,00,97,53
1444,00,97,59
1443,00,97,64
1442,00,97,69
1441,00,97,74
1440,00,97,78
1439,00,97,80
1438,00,97,80
1437,00,97,81
1436,00,97,83
1435,00,97,84
1434,00,97,86
1433,00,97,88
1432,00,97,92
1431,00,97,96
1430,00,98,03
1429,00,98,10
1428,00,98,15
1427,00,98,19
1426,00,98,22
1425,00,98,25
1424,00,98,28
1423,00,98,30
1422,00,98,31
1421,00,98,33
1420,00,98,35
1419,00,98,36
1418,00,98,36
1417,00,98,38
1416,00,98,39
1415,00,98,39
1414,00,98,40
1413,00,98,43
1412,00,98,47
1411,00,98,50
1410,00,98,53
1409,00,98,55
1408,00,98,58
1407,00,98,61
1406,00,98,65
1405,00,98,73
1404,00,98,82
1403,00,98,90
1402,00,98,96
1401,00,99,02
1400,00,99,09
1399,00,99,13
1398,00,99,15
1397,00,99,15
1396,00,99,13
1395,00,99,08
1394,00,99,00
1393,00,98,93
1392,00,98,86
1391,00,98,82
1390,00,98,80
1389,00,98,84
1388,00,98,91
1387,00,98,98
1386,00,99,02
1385,00,99,03
1384,00,99,03
1383,00,99,01
1382,00,98,98
1381,00,98,93
1380,00,98,86
1379,00,98,79
1378,00,98,75
1377,00,98,75
1376,00,98,77
1375,00,98,81
1374,00,98,84
1373,00,98,86
1372,00,98,86
1371,00,98,84
1370,00,98,82
1369,00,98,81
1368,00,98,81
1367,00,98,81
1366,00,98,82
1365,00,98,81
1364,00,98,80
1363,00,98,77
1362,00,98,74
1361,00,98,72
1360,00,98,68
1359,00,98,63
1358,00,98,57
1357,00,98,52
1356,00,98,46
1355,00,98,41
1354,00,98,36
1353,00,98,30
1352,00,98,26
1351,00,98,22
1350,00,98,19
1349,00,98,18
1348,00,98,16
1347,00,98,13
1346,00,98,10
1345,00,98,09
1344,00,98,09
1343,00,98,11
1342,00,98,14
1341,00,98,18
1340,00,98,23
1339,00,98,28
1338,00,98,32
1337,00,98,35
1336,00,98,37
1335,00,98,37
1334,00,98,36
1333,00,98,34
1332,00,98,28
1331,00,98,20
1330,00,98,11
1329,00,98,02
1328,00,97,93
1327,00,97,83
1326,00,97,73
1325,00,97,63
1324,00,97,53
1323,00,97,42
1322,00,97,32
1321,00,97,24
1320,00,97,18
1319,00,97,17
1318,00,97,19
1317,00,97,23
1316,00,97,27
1315,00,97,29
1314,00,97,30
1313,00,97,31
1312,00,97,32
1311,00,97,33
1310,00,97,34
1309,00,97,35
1308,00,97,38
1307,00,97,41
1306,00,97,45
1305,00,97,49
1304,00,97,54
1303,00,97,60
1302,00,97,66
1301,00,97,72
1300,00,97,77
1299,00,97,81
1298,00,97,84
1297,00,97,86
1296,00,97,87
1295,00,97,87
1294,00,97,86
1293,00,97,85
1292,00,97,82
1291,00,97,75
1290,00,97,66
1289,00,97,54
1288,00,97,39
1287,00,97,22
1286,00,97,01
1285,00,96,78
1284,00,96,52
1283,00,96,26
1282,00,96,04
1281,00,95,88
1280,00,95,76
1279,00,95,68
1278,00,95,65
1277,00,95,66
1276,00,95,72
1275,00,95,82
1274,00,95,96
1273,00,96,14
1272,00,96,34
1271,00,96,55
1270,00,96,76
1269,00,96,94
1268,00,97,10
1267,00,97,24
1266,00,97,32
1265,00,97,36
1264,00,97,33
1263,00,97,24
1262,00,97,08
1261,00,96,86
1260,00,96,59
1259,00,96,29
1258,00,95,97
1257,00,95,66
1256,00,95,36
1255,00,95,10
1254,00,94,88
1253,00,94,69
1252,00,94,52
1251,00,94,37
1250,00,94,24
1249,00,94,13
1248,00,94,05
1247,00,94,00
1246,00,94,01
1245,00,94,08
1244,00,94,21
1243,00,94,41
1242,00,94,65
1241,00,94,90
1240,00,95,15
1239,00,95,39
1238,00,95,60
1237,00,95,78
1236,00,95,93
1235,00,96,04
1234,00,96,13
1233,00,96,19
1232,00,96,21
1231,00,96,21
1230,00,96,21
1229,00,96,21
1228,00,96,20
1227,00,96,18
1226,00,96,17
1225,00,96,16
1224,00,96,16
1223,00,96,17
1222,00,96,16
1221,00,96,15
1220,00,96,13
1219,00,96,09
1218,00,96,04
1217,00,95,98
1216,00,95,89
1215,00,95,80
1214,00,95,69
1213,00,95,58
1212,00,95,47
1211,00,95,36
1210,00,95,26
1209,00,95,17
1208,00,95,09
1207,00,95,02
1206,00,94,96
1205,00,94,91
1204,00,94,86
1203,00,94,79
1202,00,94,72
1201,00,94,64
1200,00,94,54
1199,00,94,42
1198,00,94,29
1197,00,94,15
1196,00,93,99
1195,00,93,82
1194,00,93,60
1193,00,93,30
1192,00,92,92
1191,00,92,49
1190,00,92,07
1189,00,91,68
1188,00,91,34
1187,00,91,03
1186,00,90,77
1185,00,90,54
1184,00,90,35
1183,00,90,19
1182,00,90,07
1181,00,89,99
1180,00,89,92
1179,00,89,86
1178,00,89,79
1177,00,89,71
1176,00,89,64
1175,00,89,57
1174,00,89,50
1173,00,89,41
1172,00,89,31
1171,00,89,19
1170,00,89,05
1169,00,88,90
1168,00,88,72
1167,00,88,55
1166,00,88,39
1165,00,88,22
1164,00,88,02
1163,00,87,80
1162,00,87,58
1161,00,87,36
1160,00,87,13
1159,00,86,91
1158,00,86,70
1157,00,86,47
1156,00,86,22
1155,00,85,99
1154,00,85,77
1153,00,85,55
1152,00,85,31
1151,00,85,07
1150,00,84,85
1149,00,84,62
1148,00,84,38
1147,00,84,14
1146,00,83,90
1145,00,83,64
1144,00,83,36
1143,00,83,10
1142,00,82,86
1141,00,82,63
1140,00,82,38
1139,00,82,13
1138,00,81,89
1137,00,81,64
1136,00,81,39
1135,00,81,15
1134,00,80,94
1133,00,80,73
1132,00,80,53
1131,00,80,35
1130,00,80,17
1129,00,79,97
1128,00,79,73
1127,00,79,50
1126,00,79,27
1125,00,79,04
1124,00,78,78
1123,00,78,51
1122,00,78,26
1121,00,78,01
1120,00,77,78
1119,00,77,58
1118,00,77,41
1117,00,77,23
1116,00,77,05
1115,00,76,88
1114,00,76,72
1113,00,76,55
1112,00,76,35
1111,00,76,17
1110,00,76,02
1109,00,75,87
1108,00,75,69
1107,00,75,53
1106,00,75,38
1105,00,75,22
1104,00,75,05
1103,00,74,91
1102,00,74,80
1101,00,74,67
1100,00,74,51
1099,00,74,37
1098,00,74,25
1097,00,74,13
1096,00,73,99
1095,00,73,87
1094,00,73,76
1093,00,73,63
1092,00,73,45
1091,00,73,28
1090,00,73,12
1089,00,72,92
1088,00,72,69
1087,00,72,46
1086,00,72,26
1085,00,72,05
1084,00,71,81
1083,00,71,57
1082,00,71,34
1081,00,71,07
1080,00,70,77
1079,00,70,48
1078,00,70,21
1077,00,69,91
1076,00,69,58
1075,00,69,27
1074,00,69,00
1073,00,68,70
1072,00,68,37
1071,00,68,05
1070,00,67,77
1069,00,67,47
1068,00,67,14
1067,00,66,84
1066,00,66,59
1065,00,66,35
1064,00,66,08
1063,00,65,83
1062,00,65,62
1061,00,65,42
1060,00,65,20
1059,00,65,02
1058,00,64,90
1057,00,64,79
1056,00,64,66
1055,00,64,55
1054,00,64,48
1053,00,64,40
1052,00,64,30
1051,00,64,25
1050,00,64,26
1049,00,64,28
1048,00,64,29
1047,00,64,36
1046,00,64,48
1045,00,64,62
1044,00,64,76
1043,00,64,94
1042,00,65,18
1041,00,65,43
1040,00,65,68
1039,00,65,99
1038,00,66,35
1037,00,66,72
1036,00,67,12
1035,00,67,58
1034,00,68,14
1033,00,68,73
1032,00,69,34
1031,00,70,03
1030,00,70,79
1029,00,71,59
1028,00,72,38
1027,00,73,19
1026,00,74,01
1025,00,74,80
1024,00,75,56
1023,00,76,29
1022,00,76,99
1021,00,77,61
1020,00,78,15
1019,00,78,65
1018,00,79,13
1017,00,79,58
1016,00,80,00
1015,00,80,43
1014,00,80,89
1013,00,81,36
1012,00,81,82
1011,00,82,29
1010,00,82,78
1009,00,83,27
1008,00,83,74
1007,00,84,21
1006,00,84,66
1005,00,85,09
1004,00,85,47
1003,00,85,83
1002,00,86,17
1001,00,86,47
1000,00,86,71
999,00,86,90
998,00,87,02
997,00,87,07
996,00,87,03
995,00,86,91
994,00,86,72
993,00,86,45
992,00,86,08
991,00,85,65
990,00,85,15
989,00,84,57
988,00,83,92
987,00,83,20
986,00,82,39
985,00,81,50
984,00,80,53
983,00,79,54
982,00,78,58
981,00,77,66
980,00,76,79
979,00,76,03
978,00,75,38
977,00,74,84
976,00,74,39
975,00,74,07
974,00,73,89
973,00,73,80
972,00,73,81
971,00,73,95
970,00,74,20
969,00,74,51
968,00,74,83
967,00,75,18
966,00,75,53
965,00,75,85
964,00,76,10
963,00,76,32
962,00,76,54
961,00,76,74
960,00,76,93
959,00,77,12
958,00,77,28
957,00,77,35
956,00,77,28
955,00,77,10
954,00,76,82
953,00,76,42
952,00,75,91
951,00,75,36
950,00,74,81
949,00,74,27
948,00,73,75
947,00,73,32
946,00,73,02
945,00,72,80
944,00,72,63
943,00,72,54
942,00,72,54
941,00,72,59
940,00,72,70
939,00,72,89
938,00,73,19
937,00,73,54
936,00,73,94
935,00,74,41
934,00,74,96
933,00,75,52
932,00,76,07
931,00,76,61
930,00,77,12
929,00,77,53
928,00,77,82
927,00,78,03
926,00,78,18
925,00,78,26
924,00,78,30
923,00,78,39
922,00,78,53
921,00,78,70
920,00,78,90
919,00,79,14
918,00,79,41
917,00,79,67
916,00,79,88
915,00,80,09
914,00,80,29
913,00,80,46
912,00,80,57
911,00,80,68
910,00,80,78
909,00,80,84
908,00,80,84
907,00,80,83
906,00,80,83
905,00,80,82
904,00,80,79
903,00,80,78
902,00,80,77
901,00,80,76
900,00,80,70
899,00,80,65
898,00,80,62
897,00,80,55
896,00,80,45
895,00,80,33
894,00,80,22
893,00,80,09
892,00,79,91
891,00,79,70
890,00,79,47
889,00,79,14
888,00,78,71
887,00,78,22
886,00,77,73
885,00,77,22
884,00,76,67
883,00,76,10
882,00,75,55
881,00,75,00
880,00,74,43
879,00,73,88
878,00,73,36
877,00,72,87
876,00,72,38
875,00,71,95
874,00,71,56
873,00,71,17
872,00,70,76
871,00,70,36
870,00,70,01
869,00,69,67
868,00,69,31
867,00,68,95
866,00,68,60
865,00,68,22
864,00,67,82
863,00,67,43
862,00,67,05
861,00,66,64
860,00,66,18
859,00,65,75
858,00,65,36
857,00,64,95
856,00,64,49
855,00,64,03
854,00,63,61
853,00,63,18
852,00,62,73
851,00,62,30
850,00,61,92
849,00,61,54
848,00,61,15
847,00,60,79
846,00,60,44
845,00,60,06
844,00,59,62
843,00,59,21
842,00,58,84
841,00,58,44
840,00,57,98
839,00,57,54
838,00,57,12
837,00,56,65
836,00,56,11
835,00,55,60
834,00,55,14
833,00,54,66
832,00,54,11
831,00,53,52
830,00,52,89
829,00,52,15
828,00,51,22
827,00,50,19
826,00,49,14
825,00,48,06
824,00,47,02
823,00,46,20
822,00,45,66
821,00,45,26
820,00,44,85
819,00,44,38
818,00,43,86
817,00,43,24
816,00,42,63
815,00,42,22
814,00,42,15
813,00,42,37
812,00,42,85
811,00,43,62
810,00,44,58
809,00,45,52
808,00,46,30
807,00,46,98
806,00,47,56
805,00,47,96
804,00,48,18
803,00,48,33
802,00,48,47
801,00,48,57
800,00,48,61
799,00,48,69
798,00,48,86
797,00,49,07
796,00,49,26
795,00,49,51
794,00,49,84
793,00,50,18
792,00,50,54
791,00,50,98
790,00,51,51
789,00,52,03
788,00,52,51
787,00,53,01
786,00,53,57
785,00,54,12
784,00,54,62
783,00,55,13
782,00,55,67
781,00,56,19
780,00,56,66
779,00,57,16
778,00,57,71
777,00,58,24
776,00,58,74
775,00,59,28
774,00,59,89
773,00,60,50
772,00,61,06
771,00,61,62
770,00,62,22
769,00,62,78
768,00,63,31
767,00,63,85
766,00,64,43
765,00,65,02
764,00,65,56
763,00,66,09
762,00,66,62
761,00,67,13
760,00,67,57
759,00,67,98
758,00,68,35
757,00,68,65
756,00,68,89
755,00,69,12
754,00,69,33
753,00,69,45
752,00,69,47
751,00,69,44
750,00,69,39
749,00,69,25
748,00,69,02
747,00,68,77
746,00,68,54
745,00,68,26
744,00,67,91
743,00,67,53
742,00,67,16
741,00,66,74
740,00,66,26
739,00,65,79
738,00,65,36
737,00,64,92
736,00,64,46
735,00,64,04
734,00,63,68
733,00,63,33
732,00,62,97
731,00,62,65
730,00,62,40
729,00,62,16
728,00,61,88
727,00,61,62
726,00,61,38
725,00,61,11
724,00,60,79
723,00,60,51
722,00,60,26
721,00,59,95
720,00,59,52
719,00,59,07
718,00,58,67
717,00,58,24
716,00,57,74
715,00,57,21
714,00,56,69
713,00,56,11
712,00,55,46
711,00,54,82
710,00,54,23
709,00,53,62
708,00,52,98
707,00,52,40
706,00,51,92
705,00,51,47
704,00,51,03
703,00,50,66
702,00,50,37
701,00,50,10
700,00,49,86
699,00,49,75
698,00,49,78
697,00,49,84
696,00,49,90
695,00,50,03
694,00,50,27
693,00,50,58
692,00,50,91
691,00,51,33
690,00,51,83
689,00,52,32
688,00,52,77
687,00,53,27
686,00,53,83
685,00,54,38
684,00,54,91
683,00,55,49
682,00,56,11
681,00,56,71
680,00,57,27
679,00,57,87
678,00,58,47
677,00,58,98
676,00,59,42
675,00,59,90
674,00,60,47
673,00,61,03
672,00,61,58
671,00,62,17
670,00,62,79
669,00,63,10
668,00,62,88
667,00,62,93
666,00,63,48
665,00,64,09
664,00,64,54
663,00,64,88
662,00,65,22
661,00,65,52
660,00,65,73
659,00,65,93
658,00,66,24
657,00,66,60
656,00,66,90
655,00,67,16
654,00,67,45
653,00,67,72
652,00,67,90
651,00,68,06
650,00,68,29
