Created as New Dataset,Sample 010 By User Date Wednesday, March 05 2025
cm-1,%T
4000,00,99,79
3999,00,99,80
3998,00,99,80
3997,00,99,80
3996,00,99,80
3995,00,99,80
3994,00,99,79
3993,00,99,78
3992,00,99,78
3991,00,99,77
3990,00,99,77
3989,00,99,77
3988,00,99,78
3987,00,99,79
3986,00,99,80
3985,00,99,80
3984,00,99,79
3983,00,99,79
3982,00,99,79
3981,00,99,78
3980,00,99,78
3979,00,99,77
3978,00,99,78
3977,00,99,78
3976,00,99,79
3975,00,99,79
3974,00,99,78
3973,00,99,77
3972,00,99,77
3971,00,99,77
3970,00,99,77
3969,00,99,77
3968,00,99,77
3967,00,99,78
3966,00,99,78
3965,00,99,79
3964,00,99,80
3963,00,99,80
3962,00,99,80
3961,00,99,80
3960,00,99,79
3959,00,99,79
3958,00,99,79
3957,00,99,79
3956,00,99,80
3955,00,99,80
3954,00,99,80
3953,00,99,80
3952,00,99,80
3951,00,99,79
3950,00,99,80
3949,00,99,80
3948,00,99,81
3947,00,99,81
3946,00,99,81
3945,00,99,80
3944,00,99,79
3943,00,99,77
3942,00,99,75
3941,00,99,75
3940,00,99,76
3939,00,99,77
3938,00,99,78
3937,00,99,79
3936,00,99,80
3935,00,99,81
3934,00,99,81
3933,00,99,82
3932,00,99,81
3931,00,99,80
3930,00,99,79
3929,00,99,79
3928,00,99,79
3927,00,99,79
3926,00,99,79
3925,00,99,79
3924,00,99,78
3923,00,99,78
3922,00,99,78
3921,00,99,79
3920,00,99,80
3919,00,99,81
3918,00,99,81
3917,00,99,81
3916,00,99,82
3915,00,99,82
3914,00,99,81
3913,00,99,81
3912,00,99,81
3911,00,99,80
3910,00,99,80
3909,00,99,80
3908,00,99,81
3907,00,99,81
3906,00,99,81
3905,00,99,82
3904,00,99,83
3903,00,99,83
3902,00,99,83
3901,00,99,81
3900,00,99,80
3899,00,99,78
3898,00,99,78
3897,00,99,79
3896,00,99,80
3895,00,99,80
3894,00,99,79
3893,00,99,79
3892,00,99,79
3891,00,99,79
3890,00,99,79
3889,00,99,79
3888,00,99,79
3887,00,99,79
3886,00,99,79
3885,00,99,79
3884,00,99,79
3883,00,99,79
3882,00,99,80
3881,00,99,81
3880,00,99,81
3879,00,99,81
3878,00,99,81
3877,00,99,81
3876,00,99,82
3875,00,99,82
3874,00,99,82
3873,00,99,83
3872,00,99,84
3871,00,99,84
3870,00,99,84
3869,00,99,84
3868,00,99,84
3867,00,99,84
3866,00,99,83
3865,00,99,82
3864,00,99,81
3863,00,99,81
3862,00,99,80
3861,00,99,80
3860,00,99,81
3859,00,99,81
3858,00,99,81
3857,00,99,81
3856,00,99,81
3855,00,99,82
3854,00,99,82
3853,00,99,83
3852,00,99,83
3851,00,99,82
3850,00,99,82
3849,00,99,82
3848,00,99,82
3847,00,99,82
3846,00,99,83
3845,00,99,83
3844,00,99,84
3843,00,99,84
3842,00,99,85
3841,00,99,86
3840,00,99,86
3839,00,99,86
3838,00,99,85
3837,00,99,83
3836,00,99,82
3835,00,99,81
3834,00,99,81
3833,00,99,81
3832,00,99,81
3831,00,99,81
3830,00,99,81
3829,00,99,82
3828,00,99,81
3827,00,99,81
3826,00,99,81
3825,00,99,81
3824,00,99,82
3823,00,99,83
3822,00,99,84
3821,00,99,85
3820,00,99,86
3819,00,99,86
3818,00,99,86
3817,00,99,85
3816,00,99,84
3815,00,99,82
3814,00,99,81
3813,00,99,81
3812,00,99,80
3811,00,99,80
3810,00,99,81
3809,00,99,83
3808,00,99,84
3807,00,99,85
3806,00,99,84
3805,00,99,84
3804,00,99,84
3803,00,99,84
3802,00,99,83
3801,00,99,82
3800,00,99,81
3799,00,99,80
3798,00,99,80
3797,00,99,80
3796,00,99,80
3795,00,99,79
3794,00,99,78
3793,00,99,77
3792,00,99,77
3791,00,99,77
3790,00,99,77
3789,00,99,77
3788,00,99,77
3787,00,99,77
3786,00,99,77
3785,00,99,76
3784,00,99,76
3783,00,99,76
3782,00,99,76
3781,00,99,77
3780,00,99,78
3779,00,99,78
3778,00,99,76
3777,00,99,75
3776,00,99,74
3775,00,99,73
3774,00,99,74
3773,00,99,75
3772,00,99,77
3771,00,99,78
3770,00,99,78
3769,00,99,78
3768,00,99,77
3767,00,99,77
3766,00,99,78
3765,00,99,78
3764,00,99,78
3763,00,99,77
3762,00,99,76
3761,00,99,76
3760,00,99,76
3759,00,99,77
3758,00,99,77
3757,00,99,77
3756,00,99,76
3755,00,99,76
3754,00,99,77
3753,00,99,80
3752,00,99,83
3751,00,99,86
3750,00,99,87
3749,00,99,86
3748,00,99,86
3747,00,99,85
3746,00,99,85
3745,00,99,84
3744,00,99,81
3743,00,99,79
3742,00,99,79
3741,00,99,80
3740,00,99,82
3739,00,99,85
3738,00,99,88
3737,00,99,89
3736,00,99,88
3735,00,99,87
3734,00,99,85
3733,00,99,84
3732,00,99,83
3731,00,99,82
3730,00,99,82
3729,00,99,82
3728,00,99,83
3727,00,99,84
3726,00,99,83
3725,00,99,83
3724,00,99,82
3723,00,99,81
3722,00,99,80
3721,00,99,78
3720,00,99,76
3719,00,99,76
3718,00,99,77
3717,00,99,78
3716,00,99,78
3715,00,99,78
3714,00,99,79
3713,00,99,81
3712,00,99,82
3711,00,99,82
3710,00,99,82
3709,00,99,82
3708,00,99,82
3707,00,99,81
3706,00,99,79
3705,00,99,78
3704,00,99,77
3703,00,99,76
3702,00,99,76
3701,00,99,76
3700,00,99,77
3699,00,99,78
3698,00,99,78
3697,00,99,79
3696,00,99,80
3695,00,99,80
3694,00,99,82
3693,00,99,83
3692,00,99,83
3691,00,99,83
3690,00,99,84
3689,00,99,86
3688,00,99,88
3687,00,99,90
3686,00,99,92
3685,00,99,95
3684,00,99,99
3683,00,100,04
3682,00,100,09
3681,00,100,16
3680,00,100,22
3679,00,100,28
3678,00,100,34
3677,00,100,40
3676,00,100,44
3675,00,100,48
3674,00,100,52
3673,00,100,55
3672,00,100,59
3671,00,100,61
3670,00,100,60
3669,00,100,60
3668,00,100,60
3667,00,100,63
3666,00,100,66
3665,00,100,69
3664,00,100,72
3663,00,100,73
3662,00,100,74
3661,00,100,75
3660,00,100,76
3659,00,100,78
3658,00,100,78
3657,00,100,78
3656,00,100,78
3655,00,100,77
3654,00,100,76
3653,00,100,76
3652,00,100,76
3651,00,100,76
3650,00,100,75
3649,00,100,72
3648,00,100,68
3647,00,100,64
3646,00,100,61
3645,00,100,58
3644,00,100,56
3643,00,100,53
3642,00,100,48
3641,00,100,43
3640,00,100,39
3639,00,100,39
3638,00,100,41
3637,00,100,42
3636,00,100,38
3635,00,100,30
3634,00,100,19
3633,00,100,10
3632,00,100,04
3631,00,100,00
3630,00,99,98
3629,00,99,96
3628,00,99,94
3627,00,99,93
3626,00,99,92
3625,00,99,91
3624,00,99,90
3623,00,99,89
3622,00,99,87
3621,00,99,84
3620,00,99,80
3619,00,99,76
3618,00,99,75
3617,00,99,76
3616,00,99,78
3615,00,99,79
3614,00,99,80
3613,00,99,79
3612,00,99,79
3611,00,99,78
3610,00,99,78
3609,00,99,76
3608,00,99,75
3607,00,99,74
3606,00,99,73
3605,00,99,72
3604,00,99,72
3603,00,99,71
3602,00,99,71
3601,00,99,71
3600,00,99,71
3599,00,99,70
3598,00,99,70
3597,00,99,70
3596,00,99,71
3595,00,99,71
3594,00,99,71
3593,00,99,71
3592,00,99,72
3591,00,99,73
3590,00,99,73
3589,00,99,72
3588,00,99,70
3587,00,99,67
3586,00,99,66
3585,00,99,66
3584,00,99,67
3583,00,99,67
3582,00,99,67
3581,00,99,66
3580,00,99,65
3579,00,99,65
3578,00,99,65
3577,00,99,65
3576,00,99,65
3575,00,99,64
3574,00,99,62
3573,00,99,61
3572,00,99,62
3571,00,99,63
3570,00,99,65
3569,00,99,64
3568,00,99,63
3567,00,99,61
3566,00,99,61
3565,00,99,62
3564,00,99,62
3563,00,99,62
3562,00,99,62
3561,00,99,62
3560,00,99,63
3559,00,99,64
3558,00,99,64
3557,00,99,64
3556,00,99,63
3555,00,99,63
3554,00,99,64
3553,00,99,64
3552,00,99,64
3551,00,99,63
3550,00,99,62
3549,00,99,62
3548,00,99,62
3547,00,99,62
3546,00,99,63
3545,00,99,63
3544,00,99,62
3543,00,99,61
3542,00,99,60
3541,00,99,60
3540,00,99,59
3539,00,99,58
3538,00,99,56
3537,00,99,56
3536,00,99,57
3535,00,99,59
3534,00,99,61
3533,00,99,61
3532,00,99,61
3531,00,99,61
3530,00,99,60
3529,00,99,60
3528,00,99,60
3527,00,99,61
3526,00,99,60
3525,00,99,59
3524,00,99,58
3523,00,99,57
3522,00,99,57
3521,00,99,58
3520,00,99,58
3519,00,99,59
3518,00,99,58
3517,00,99,59
3516,00,99,59
3515,00,99,60
3514,00,99,61
3513,00,99,62
3512,00,99,61
3511,00,99,60
3510,00,99,58
3509,00,99,57
3508,00,99,57
3507,00,99,57
3506,00,99,58
3505,00,99,58
3504,00,99,58
3503,00,99,57
3502,00,99,55
3501,00,99,54
3500,00,99,53
3499,00,99,54
3498,00,99,54
3497,00,99,55
3496,00,99,55
3495,00,99,54
3494,00,99,53
3493,00,99,53
3492,00,99,53
3491,00,99,55
3490,00,99,57
3489,00,99,58
3488,00,99,59
3487,00,99,58
3486,00,99,58
3485,00,99,57
3484,00,99,57
3483,00,99,57
3482,00,99,56
3481,00,99,56
3480,00,99,56
3479,00,99,56
3478,00,99,56
3477,00,99,56
3476,00,99,56
3475,00,99,56
3474,00,99,57
3473,00,99,58
3472,00,99,58
3471,00,99,57
3470,00,99,56
3469,00,99,56
3468,00,99,56
3467,00,99,58
3466,00,99,59
3465,00,99,59
3464,00,99,58
3463,00,99,56
3462,00,99,56
3461,00,99,56
3460,00,99,56
3459,00,99,56
3458,00,99,57
3457,00,99,57
3456,00,99,58
3455,00,99,58
3454,00,99,57
3453,00,99,57
3452,00,99,57
3451,00,99,57
3450,00,99,57
3449,00,99,57
3448,00,99,57
3447,00,99,57
3446,00,99,56
3445,00,99,55
3444,00,99,55
3443,00,99,54
3442,00,99,54
3441,00,99,53
3440,00,99,51
3439,00,99,50
3438,00,99,51
3437,00,99,52
3436,00,99,52
3435,00,99,52
3434,00,99,51
3433,00,99,50
3432,00,99,49
3431,00,99,47
3430,00,99,46
3429,00,99,45
3428,00,99,45
3427,00,99,45
3426,00,99,44
3425,00,99,42
3424,00,99,40
3423,00,99,38
3422,00,99,35
3421,00,99,32
3420,00,99,29
3419,00,99,27
3418,00,99,25
3417,00,99,24
3416,00,99,22
3415,00,99,19
3414,00,99,16
3413,00,99,12
3412,00,99,08
3411,00,99,04
3410,00,99,00
3409,00,98,95
3408,00,98,89
3407,00,98,84
3406,00,98,80
3405,00,98,75
3404,00,98,69
3403,00,98,60
3402,00,98,52
3401,00,98,44
3400,00,98,37
3399,00,98,31
3398,00,98,24
3397,00,98,15
3396,00,98,05
3395,00,97,95
3394,00,97,84
3393,00,97,75
3392,00,97,65
3391,00,97,55
3390,00,97,44
3389,00,97,33
3388,00,97,22
3387,00,97,12
3386,00,97,03
3385,00,96,95
3384,00,96,87
3383,00,96,79
3382,00,96,72
3381,00,96,65
3380,00,96,60
3379,00,96,55
3378,00,96,50
3377,00,96,45
3376,00,96,42
3375,00,96,40
3374,00,96,38
3373,00,96,37
3372,00,96,38
3371,00,96,39
3370,00,96,41
3369,00,96,44
3368,00,96,47
3367,00,96,51
3366,00,96,56
3365,00,96,61
3364,00,96,67
3363,00,96,73
3362,00,96,79
3361,00,96,84
3360,00,96,90
3359,00,96,96
3358,00,97,03
3357,00,97,10
3356,00,97,18
3355,00,97,26
3354,00,97,33
3353,00,97,41
3352,00,97,49
3351,00,97,56
3350,00,97,63
3349,00,97,70
3348,00,97,76
3347,00,97,83
3346,00,97,90
3345,00,97,96
3344,00,98,02
3343,00,98,07
3342,00,98,11
3341,00,98,15
3340,00,98,19
3339,00,98,24
3338,00,98,29
3337,00,98,35
3336,00,98,41
3335,00,98,47
3334,00,98,52
3333,00,98,56
3332,00,98,59
3331,00,98,62
3330,00,98,64
3329,00,98,67
3328,00,98,70
3327,00,98,73
3326,00,98,76
3325,00,98,78
3324,00,98,80
3323,00,98,83
3322,00,98,86
3321,00,98,88
3320,00,98,89
3319,00,98,91
3318,00,98,92
3317,00,98,94
3316,00,98,96
3315,00,98,97
3314,00,98,98
3313,00,99,00
3312,00,99,03
3311,00,99,05
3310,00,99,06
3309,00,99,06
3308,00,99,06
3307,00,99,06
3306,00,99,07
3305,00,99,08
3304,00,99,09
3303,00,99,11
3302,00,99,13
3301,00,99,14
3300,00,99,16
3299,00,99,16
3298,00,99,16
3297,00,99,15
3296,00,99,15
3295,00,99,15
3294,00,99,17
3293,00,99,19
3292,00,99,20
3291,00,99,21
3290,00,99,22
3289,00,99,22
3288,00,99,22
3287,00,99,22
3286,00,99,23
3285,00,99,24
3284,00,99,26
3283,00,99,27
3282,00,99,27
3281,00,99,27
3280,00,99,27
3279,00,99,27
3278,00,99,28
3277,00,99,29
3276,00,99,31
3275,00,99,33
3274,00,99,34
3273,00,99,34
3272,00,99,35
3271,00,99,35
3270,00,99,34
3269,00,99,34
3268,00,99,34
3267,00,99,34
3266,00,99,35
3265,00,99,36
3264,00,99,36
3263,00,99,36
3262,00,99,36
3261,00,99,36
3260,00,99,37
3259,00,99,38
3258,00,99,39
3257,00,99,40
3256,00,99,41
3255,00,99,43
3254,00,99,44
3253,00,99,44
3252,00,99,44
3251,00,99,44
3250,00,99,45
3249,00,99,46
3248,00,99,47
3247,00,99,47
3246,00,99,47
3245,00,99,48
3244,00,99,49
3243,00,99,50
3242,00,99,51
3241,00,99,50
3240,00,99,48
3239,00,99,47
3238,00,99,46
3237,00,99,47
3236,00,99,49
3235,00,99,51
3234,00,99,54
3233,00,99,56
3232,00,99,56
3231,00,99,54
3230,00,99,52
3229,00,99,51
3228,00,99,52
3227,00,99,54
3226,00,99,55
3225,00,99,55
3224,00,99,54
3223,00,99,53
3222,00,99,53
3221,00,99,53
3220,00,99,55
3219,00,99,56
3218,00,99,57
3217,00,99,57
3216,00,99,57
3215,00,99,56
3214,00,99,55
3213,00,99,55
3212,00,99,55
3211,00,99,56
3210,00,99,56
3209,00,99,55
3208,00,99,54
3207,00,99,53
3206,00,99,52
3205,00,99,53
3204,00,99,53
3203,00,99,53
3202,00,99,53
3201,00,99,53
3200,00,99,54
3199,00,99,55
3198,00,99,56
3197,00,99,55
3196,00,99,54
3195,00,99,54
3194,00,99,54
3193,00,99,54
3192,00,99,54
3191,00,99,54
3190,00,99,54
3189,00,99,54
3188,00,99,55
3187,00,99,55
3186,00,99,54
3185,00,99,53
3184,00,99,53
3183,00,99,52
3182,00,99,52
3181,00,99,51
3180,00,99,51
3179,00,99,53
3178,00,99,54
3177,00,99,53
3176,00,99,52
3175,00,99,50
3174,00,99,49
3173,00,99,49
3172,00,99,49
3171,00,99,49
3170,00,99,48
3169,00,99,48
3168,00,99,48
3167,00,99,48
3166,00,99,49
3165,00,99,48
3164,00,99,47
3163,00,99,47
3162,00,99,46
3161,00,99,47
3160,00,99,47
3159,00,99,47
3158,00,99,46
3157,00,99,44
3156,00,99,42
3155,00,99,42
3154,00,99,42
3153,00,99,43
3152,00,99,44
3151,00,99,45
3150,00,99,45
3149,00,99,44
3148,00,99,43
3147,00,99,43
3146,00,99,44
3145,00,99,44
3144,00,99,45
3143,00,99,45
3142,00,99,44
3141,00,99,44
3140,00,99,43
3139,00,99,42
3138,00,99,42
3137,00,99,42
3136,00,99,42
3135,00,99,42
3134,00,99,42
3133,00,99,41
3132,00,99,42
3131,00,99,43
3130,00,99,44
3129,00,99,44
3128,00,99,43
3127,00,99,42
3126,00,99,41
3125,00,99,41
3124,00,99,42
3123,00,99,44
3122,00,99,45
3121,00,99,45
3120,00,99,44
3119,00,99,44
3118,00,99,43
3117,00,99,42
3116,00,99,42
3115,00,99,42
3114,00,99,42
3113,00,99,43
3112,00,99,43
3111,00,99,44
3110,00,99,45
3109,00,99,45
3108,00,99,45
3107,00,99,45
3106,00,99,45
3105,00,99,46
3104,00,99,46
3103,00,99,45
3102,00,99,44
3101,00,99,44
3100,00,99,45
3099,00,99,47
3098,00,99,47
3097,00,99,46
3096,00,99,45
3095,00,99,45
3094,00,99,45
3093,00,99,45
3092,00,99,46
3091,00,99,46
3090,00,99,46
3089,00,99,46
3088,00,99,46
3087,00,99,46
3086,00,99,47
3085,00,99,47
3084,00,99,47
3083,00,99,46
3082,00,99,45
3081,00,99,45
3080,00,99,45
3079,00,99,46
3078,00,99,47
3077,00,99,48
3076,00,99,49
3075,00,99,49
3074,00,99,50
3073,00,99,50
3072,00,99,50
3071,00,99,50
3070,00,99,50
3069,00,99,50
3068,00,99,49
3067,00,99,50
3066,00,99,50
3065,00,99,50
3064,00,99,50
3063,00,99,50
3062,00,99,50
3061,00,99,51
3060,00,99,52
3059,00,99,53
3058,00,99,54
3057,00,99,54
3056,00,99,54
3055,00,99,53
3054,00,99,52
3053,00,99,53
3052,00,99,52
3051,00,99,52
3050,00,99,52
3049,00,99,52
3048,00,99,53
3047,00,99,53
3046,00,99,52
3045,00,99,51
3044,00,99,51
3043,00,99,51
3042,00,99,52
3041,00,99,52
3040,00,99,53
3039,00,99,54
3038,00,99,54
3037,00,99,54
3036,00,99,54
3035,00,99,55
3034,00,99,57
3033,00,99,58
3032,00,99,59
3031,00,99,60
3030,00,99,61
3029,00,99,63
3028,00,99,64
3027,00,99,65
3026,00,99,65
3025,00,99,67
3024,00,99,69
3023,00,99,72
3022,00,99,76
3021,00,99,79
3020,00,99,84
3019,00,99,89
3018,00,99,95
3017,00,100,02
3016,00,100,11
3015,00,100,22
3014,00,100,34
3013,00,100,48
3012,00,100,65
3011,00,100,85
3010,00,101,07
3009,00,101,31
3008,00,101,57
3007,00,101,85
3006,00,102,15
3005,00,102,47
3004,00,102,79
3003,00,103,13
3002,00,103,47
3001,00,103,79
3000,00,104,10
2999,00,104,37
2998,00,104,62
2997,00,104,83
2996,00,105,02
2995,00,105,20
2994,00,105,35
2993,00,105,51
2992,00,105,65
2991,00,105,77
2990,00,105,89
2989,00,106,02
2988,00,106,18
2987,00,106,41
2986,00,106,81
2985,00,107,52
2984,00,108,57
2983,00,109,74
2982,00,110,61
2981,00,110,84
2980,00,110,44
2979,00,109,71
2978,00,108,93
2977,00,108,26
2976,00,107,77
2975,00,107,47
2974,00,107,39
2973,00,107,45
2972,00,107,48
2971,00,107,26
2970,00,106,74
2969,00,106,04
2968,00,105,36
2967,00,104,82
2966,00,104,37
2965,00,103,95
2964,00,103,55
2963,00,103,19
2962,00,102,90
2961,00,102,66
2960,00,102,46
2959,00,102,31
2958,00,102,20
2957,00,102,12
2956,00,102,05
2955,00,102,00
2954,00,101,96
2953,00,101,92
2952,00,101,88
2951,00,101,84
2950,00,101,81
2949,00,101,77
2948,00,101,69
2947,00,101,58
2946,00,101,44
2945,00,101,27
2944,00,101,09
2943,00,100,93
2942,00,100,80
2941,00,100,67
2940,00,100,54
2939,00,100,42
2938,00,100,29
2937,00,100,14
2936,00,100,01
2935,00,99,90
2934,00,99,83
2933,00,99,78
2932,00,99,74
2931,00,99,70
2930,00,99,65
2929,00,99,59
2928,00,99,54
2927,00,99,50
2926,00,99,48
2925,00,99,49
2924,00,99,52
2923,00,99,57
2922,00,99,64
2921,00,99,72
2920,00,99,80
2919,00,99,91
2918,00,100,02
2917,00,100,13
2916,00,100,24
2915,00,100,35
2914,00,100,46
2913,00,100,56
2912,00,100,65
2911,00,100,75
2910,00,100,84
2909,00,100,93
2908,00,101,02
2907,00,101,09
2906,00,101,18
2905,00,101,26
2904,00,101,34
2903,00,101,40
2902,00,101,46
2901,00,101,50
2900,00,101,53
2899,00,101,57
2898,00,101,63
2897,00,101,70
2896,00,101,77
2895,00,101,86
2894,00,101,95
2893,00,102,05
2892,00,102,14
2891,00,102,23
2890,00,102,29
2889,00,102,31
2888,00,102,29
2887,00,102,25
2886,00,102,22
2885,00,102,20
2884,00,102,16
2883,00,102,05
2882,00,101,87
2881,00,101,62
2880,00,101,36
2879,00,101,12
2878,00,100,90
2877,00,100,72
2876,00,100,56
2875,00,100,44
2874,00,100,35
2873,00,100,31
2872,00,100,28
2871,00,100,28
2870,00,100,28
2869,00,100,28
2868,00,100,26
2867,00,100,24
2866,00,100,19
2865,00,100,11
2864,00,100,01
2863,00,99,90
2862,00,99,80
2861,00,99,71
2860,00,99,63
2859,00,99,58
2858,00,99,55
2857,00,99,53
2856,00,99,54
2855,00,99,57
2854,00,99,60
2853,00,99,64
2852,00,99,67
2851,00,99,71
2850,00,99,74
2849,00,99,77
2848,00,99,79
2847,00,99,80
2846,00,99,82
2845,00,99,84
2844,00,99,86
2843,00,99,87
2842,00,99,89
2841,00,99,89
2840,00,99,90
2839,00,99,90
2838,00,99,91
2837,00,99,93
2836,00,99,94
2835,00,99,94
2834,00,99,94
2833,00,99,93
2832,00,99,93
2831,00,99,94
2830,00,99,96
2829,00,99,97
2828,00,99,98
2827,00,99,98
2826,00,99,98
2825,00,99,97
2824,00,99,96
2823,00,99,95
2822,00,99,95
2821,00,99,94
2820,00,99,94
2819,00,99,95
2818,00,99,96
2817,00,99,97
2816,00,99,97
2815,00,99,96
2814,00,99,95
2813,00,99,94
2812,00,99,93
2811,00,99,92
2810,00,99,92
2809,00,99,92
2808,00,99,91
2807,00,99,92
2806,00,99,92
2805,00,99,91
2804,00,99,91
2803,00,99,91
2802,00,99,91
2801,00,99,92
2800,00,99,92
2799,00,99,92
2798,00,99,92
2797,00,99,92
2796,00,99,92
2795,00,99,92
2794,00,99,91
2793,00,99,91
2792,00,99,90
2791,00,99,90
2790,00,99,90
2789,00,99,89
2788,00,99,88
2787,00,99,88
2786,00,99,89
2785,00,99,89
2784,00,99,89
2783,00,99,88
2782,00,99,87
2781,00,99,87
2780,00,99,87
2779,00,99,87
2778,00,99,87
2777,00,99,87
2776,00,99,87
2775,00,99,88
2774,00,99,88
2773,00,99,87
2772,00,99,87
2771,00,99,87
2770,00,99,86
2769,00,99,86
2768,00,99,86
2767,00,99,85
2766,00,99,85
2765,00,99,84
2764,00,99,84
2763,00,99,85
2762,00,99,86
2761,00,99,87
2760,00,99,88
2759,00,99,88
2758,00,99,87
2757,00,99,86
2756,00,99,85
2755,00,99,84
2754,00,99,83
2753,00,99,83
2752,00,99,83
2751,00,99,84
2750,00,99,85
2749,00,99,85
2748,00,99,85
2747,00,99,85
2746,00,99,84
2745,00,99,84
2744,00,99,84
2743,00,99,84
2742,00,99,84
2741,00,99,84
2740,00,99,84
2739,00,99,84
2738,00,99,84
2737,00,99,84
2736,00,99,83
2735,00,99,83
2734,00,99,82
2733,00,99,81
2732,00,99,81
2731,00,99,80
2730,00,99,80
2729,00,99,81
2728,00,99,82
2727,00,99,82
2726,00,99,83
2725,00,99,82
2724,00,99,82
2723,00,99,82
2722,00,99,82
2721,00,99,82
2720,00,99,83
2719,00,99,83
2718,00,99,83
2717,00,99,82
2716,00,99,82
2715,00,99,82
2714,00,99,83
2713,00,99,83
2712,00,99,83
2711,00,99,82
2710,00,99,81
2709,00,99,80
2708,00,99,80
2707,00,99,80
2706,00,99,80
2705,00,99,80
2704,00,99,81
2703,00,99,81
2702,00,99,81
2701,00,99,81
2700,00,99,80
2699,00,99,80
2698,00,99,80
2697,00,99,80
2696,00,99,80
2695,00,99,80
2694,00,99,80
2693,00,99,80
2692,00,99,80
2691,00,99,80
2690,00,99,80
2689,00,99,80
2688,00,99,81
2687,00,99,82
2686,00,99,84
2685,00,99,85
2684,00,99,85
2683,00,99,85
2682,00,99,86
2681,00,99,86
2680,00,99,85
2679,00,99,85
2678,00,99,86
2677,00,99,86
2676,00,99,86
2675,00,99,86
2674,00,99,86
2673,00,99,86
2672,00,99,86
2671,00,99,87
2670,00,99,87
2669,00,99,88
2668,00,99,89
2667,00,99,90
2666,00,99,91
2665,00,99,91
2664,00,99,90
2663,00,99,89
2662,00,99,88
2661,00,99,87
2660,00,99,87
2659,00,99,87
2658,00,99,87
2657,00,99,86
2656,00,99,85
2655,00,99,85
2654,00,99,84
2653,00,99,84
2652,00,99,84
2651,00,99,83
2650,00,99,82
2649,00,99,82
2648,00,99,82
2647,00,99,82
2646,00,99,83
2645,00,99,84
2644,00,99,84
2643,00,99,83
2642,00,99,83
2641,00,99,83
2640,00,99,83
2639,00,99,83
2638,00,99,83
2637,00,99,82
2636,00,99,81
2635,00,99,79
2634,00,99,78
2633,00,99,78
2632,00,99,79
2631,00,99,80
2630,00,99,81
2629,00,99,81
2628,00,99,81
2627,00,99,80
2626,00,99,79
2625,00,99,78
2624,00,99,77
2623,00,99,76
2622,00,99,76
2621,00,99,77
2620,00,99,77
2619,00,99,76
2618,00,99,75
2617,00,99,74
2616,00,99,74
2615,00,99,74
2614,00,99,74
2613,00,99,74
2612,00,99,76
2611,00,99,77
2610,00,99,77
2609,00,99,77
2608,00,99,77
2607,00,99,77
2606,00,99,77
2605,00,99,77
2604,00,99,76
2603,00,99,76
2602,00,99,76
2601,00,99,77
2600,00,99,77
2599,00,99,75
2598,00,99,74
2597,00,99,73
2596,00,99,73
2595,00,99,74
2594,00,99,73
2593,00,99,72
2592,00,99,71
2591,00,99,71
2590,00,99,70
2589,00,99,70
2588,00,99,70
2587,00,99,71
2586,00,99,72
2585,00,99,73
2584,00,99,74
2583,00,99,75
2582,00,99,75
2581,00,99,75
2580,00,99,75
2579,00,99,75
2578,00,99,75
2577,00,99,74
2576,00,99,72
2575,00,99,72
2574,00,99,73
2573,00,99,74
2572,00,99,75
2571,00,99,76
2570,00,99,75
2569,00,99,74
2568,00,99,74
2567,00,99,74
2566,00,99,74
2565,00,99,74
2564,00,99,74
2563,00,99,74
2562,00,99,74
2561,00,99,73
2560,00,99,72
2559,00,99,72
2558,00,99,72
2557,00,99,73
2556,00,99,74
2555,00,99,75
2554,00,99,76
2553,00,99,76
2552,00,99,74
2551,00,99,73
2550,00,99,72
2549,00,99,72
2548,00,99,73
2547,00,99,73
2546,00,99,74
2545,00,99,74
2544,00,99,74
2543,00,99,73
2542,00,99,73
2541,00,99,74
2540,00,99,75
2539,00,99,75
2538,00,99,74
2537,00,99,73
2536,00,99,72
2535,00,99,72
2534,00,99,73
2533,00,99,73
2532,00,99,74
2531,00,99,75
2530,00,99,77
2529,00,99,77
2528,00,99,76
2527,00,99,75
2526,00,99,76
2525,00,99,77
2524,00,99,77
2523,00,99,76
2522,00,99,75
2521,00,99,74
2520,00,99,73
2519,00,99,74
2518,00,99,75
2517,00,99,76
2516,00,99,78
2515,00,99,79
2514,00,99,78
2513,00,99,77
2512,00,99,77
2511,00,99,78
2510,00,99,79
2509,00,99,80
2508,00,99,79
2507,00,99,79
2506,00,99,79
2505,00,99,80
2504,00,99,82
2503,00,99,82
2502,00,99,81
2501,00,99,80
2500,00,99,79
2499,00,99,80
2498,00,99,80
2497,00,99,79
2496,00,99,77
2495,00,99,76
2494,00,99,75
2493,00,99,76
2492,00,99,77
2491,00,99,78
2490,00,99,79
2489,00,99,79
2488,00,99,80
2487,00,99,80
2486,00,99,80
2485,00,99,79
2484,00,99,78
2483,00,99,78
2482,00,99,79
2481,00,99,78
2480,00,99,78
2479,00,99,77
2478,00,99,77
2477,00,99,76
2476,00,99,76
2475,00,99,77
2474,00,99,79
2473,00,99,80
2472,00,99,80
2471,00,99,79
2470,00,99,79
2469,00,99,78
2468,00,99,77
2467,00,99,77
2466,00,99,77
2465,00,99,77
2464,00,99,78
2463,00,99,77
2462,00,99,76
2461,00,99,75
2460,00,99,74
2459,00,99,74
2458,00,99,73
2457,00,99,73
2456,00,99,74
2455,00,99,75
2454,00,99,75
2453,00,99,75
2452,00,99,74
2451,00,99,74
2450,00,99,74
2449,00,99,75
2448,00,99,75
2447,00,99,76
2446,00,99,75
2445,00,99,75
2444,00,99,74
2443,00,99,74
2442,00,99,74
2441,00,99,74
2440,00,99,74
2439,00,99,75
2438,00,99,76
2437,00,99,76
2436,00,99,75
2435,00,99,74
2434,00,99,74
2433,00,99,74
2432,00,99,74
2431,00,99,73
2430,00,99,73
2429,00,99,72
2428,00,99,73
2427,00,99,73
2426,00,99,74
2425,00,99,75
2424,00,99,75
2423,00,99,75
2422,00,99,74
2421,00,99,74
2420,00,99,73
2419,00,99,74
2418,00,99,75
2417,00,99,75
2416,00,99,74
2415,00,99,73
2414,00,99,72
2413,00,99,72
2412,00,99,72
2411,00,99,72
2410,00,99,73
2409,00,99,73
2408,00,99,72
2407,00,99,72
2406,00,99,72
2405,00,99,73
2404,00,99,74
2403,00,99,75
2402,00,99,75
2401,00,99,74
2400,00,99,73
2399,00,99,73
2398,00,99,73
2397,00,99,73
2396,00,99,72
2395,00,99,72
2394,00,99,72
2393,00,99,73
2392,00,99,73
2391,00,99,74
2390,00,99,75
2389,00,99,74
2388,00,99,73
2387,00,99,73
2386,00,99,75
2385,00,99,78
2384,00,99,81
2383,00,99,82
2382,00,99,83
2381,00,99,82
2380,00,99,81
2379,00,99,79
2378,00,99,77
2377,00,99,76
2376,00,99,77
2375,00,99,80
2374,00,99,84
2373,00,99,86
2372,00,99,86
2371,00,99,86
2370,00,99,87
2369,00,99,88
2368,00,99,89
2367,00,99,91
2366,00,99,93
2365,00,99,93
2364,00,99,92
2363,00,99,87
2362,00,99,81
2361,00,99,75
2360,00,99,73
2359,00,99,77
2358,00,99,83
2357,00,99,86
2356,00,99,85
2355,00,99,84
2354,00,99,85
2353,00,99,85
2352,00,99,84
2351,00,99,84
2350,00,99,84
2349,00,99,83
2348,00,99,79
2347,00,99,77
2346,00,99,77
2345,00,99,80
2344,00,99,83
2343,00,99,82
2342,00,99,79
2341,00,99,73
2340,00,99,68
2339,00,99,67
2338,00,99,68
2337,00,99,68
2336,00,99,68
2335,00,99,71
2334,00,99,73
2333,00,99,71
2332,00,99,66
2331,00,99,62
2330,00,99,63
2329,00,99,68
2328,00,99,72
2327,00,99,71
2326,00,99,67
2325,00,99,61
2324,00,99,56
2323,00,99,54
2322,00,99,55
2321,00,99,57
2320,00,99,56
2319,00,99,55
2318,00,99,54
2317,00,99,53
2316,00,99,51
2315,00,99,48
2314,00,99,45
2313,00,99,44
2312,00,99,44
2311,00,99,44
2310,00,99,43
2309,00,99,41
2308,00,99,37
2307,00,99,33
2306,00,99,29
2305,00,99,25
2304,00,99,23
2303,00,99,22
2302,00,99,21
2301,00,99,20
2300,00,99,17
2299,00,99,14
2298,00,99,10
2297,00,99,06
2296,00,99,02
2295,00,98,97
2294,00,98,91
2293,00,98,85
2292,00,98,80
2291,00,98,75
2290,00,98,71
2289,00,98,66
2288,00,98,60
2287,00,98,55
2286,00,98,50
2285,00,98,44
2284,00,98,38
2283,00,98,33
2282,00,98,28
2281,00,98,23
2280,00,98,18
2279,00,98,12
2278,00,98,06
2277,00,97,99
2276,00,97,93
2275,00,97,87
2274,00,97,79
2273,00,97,69
2272,00,97,58
2271,00,97,48
2270,00,97,40
2269,00,97,31
2268,00,97,23
2267,00,97,13
2266,00,97,02
2265,00,96,89
2264,00,96,77
2263,00,96,64
2262,00,96,52
2261,00,96,38
2260,00,96,22
2259,00,96,05
2258,00,95,88
2257,00,95,73
2256,00,95,59
2255,00,95,48
2254,00,95,35
2253,00,95,19
2252,00,94,99
2251,00,94,79
2250,00,94,60
2249,00,94,42
2248,00,94,24
2247,00,94,06
2246,00,93,86
2245,00,93,67
2244,00,93,48
2243,00,93,29
2242,00,93,09
2241,00,92,88
2240,00,92,66
2239,00,92,43
2238,00,92,20
2237,00,91,97
2236,00,91,74
2235,00,91,50
2234,00,91,26
2233,00,91,00
2232,00,90,75
2231,00,90,47
2230,00,90,18
2229,00,89,88
2228,00,89,58
2227,00,89,28
2226,00,88,97
2225,00,88,66
2224,00,88,34
2223,00,87,97
2222,00,87,59
2221,00,87,21
2220,00,86,84
2219,00,86,46
2218,00,86,07
2217,00,85,65
2216,00,85,22
2215,00,84,75
2214,00,84,28
2213,00,83,83
2212,00,83,39
2211,00,82,94
2210,00,82,43
2209,00,81,92
2208,00,81,39
2207,00,80,83
2206,00,80,24
2205,00,79,64
2204,00,79,05
2203,00,78,46
2202,00,77,86
2201,00,77,26
2200,00,76,67
2199,00,76,03
2198,00,75,36
2197,00,74,69
2196,00,74,04
2195,00,73,39
2194,00,72,73
2193,00,72,12
2192,00,71,52
2191,00,70,90
2190,00,70,24
2189,00,69,61
2188,00,68,98
2187,00,68,33
2186,00,67,67
2185,00,67,07
2184,00,66,52
2183,00,65,94
2182,00,65,34
2181,00,64,82
2180,00,64,36
2179,00,63,86
2178,00,63,33
2177,00,62,88
2176,00,62,50
2175,00,62,08
2174,00,61,64
2173,00,61,29
2172,00,61,00
2171,00,60,71
2170,00,60,42
2169,00,60,21
2168,00,60,08
2167,00,59,95
2166,00,59,83
2165,00,59,81
2164,00,59,86
2163,00,59,86
2162,00,59,87
2161,00,60,00
2160,00,60,20
2159,00,60,31
2158,00,60,35
2157,00,60,48
2156,00,60,74
2155,00,60,99
2154,00,61,27
2153,00,61,67
2152,00,62,18
2151,00,62,70
2150,00,63,23
2149,00,63,87
2148,00,64,57
2147,00,65,26
2146,00,65,97
2145,00,66,77
2144,00,67,66
2143,00,68,56
2142,00,69,48
2141,00,70,47
2140,00,71,50
2139,00,72,52
2138,00,73,51
2137,00,74,54
2136,00,75,61
2135,00,76,69
2134,00,77,76
2133,00,78,84
2132,00,79,89
2131,00,80,87
2130,00,81,83
2129,00,82,79
2128,00,83,74
2127,00,84,65
2126,00,85,51
2125,00,86,35
2124,00,87,15
2123,00,87,92
2122,00,88,63
2121,00,89,32
2120,00,89,97
2119,00,90,57
2118,00,91,13
2117,00,91,66
2116,00,92,17
2115,00,92,64
2114,00,93,05
2113,00,93,42
2112,00,93,77
2111,00,94,10
2110,00,94,41
2109,00,94,73
2108,00,95,02
2107,00,95,28
2106,00,95,50
2105,00,95,70
2104,00,95,90
2103,00,96,08
2102,00,96,25
2101,00,96,39
2100,00,96,53
2099,00,96,66
2098,00,96,78
2097,00,96,89
2096,00,97,02
2095,00,97,13
2094,00,97,23
2093,00,97,31
2092,00,97,39
2091,00,97,48
2090,00,97,56
2089,00,97,62
2088,00,97,67
2087,00,97,71
2086,00,97,74
2085,00,97,76
2084,00,97,81
2083,00,97,87
2082,00,97,93
2081,00,97,99
2080,00,98,04
2079,00,98,09
2078,00,98,12
2077,00,98,14
2076,00,98,17
2075,00,98,21
2074,00,98,26
2073,00,98,28
2072,00,98,31
2071,00,98,34
2070,00,98,37
2069,00,98,38
2068,00,98,39
2067,00,98,42
2066,00,98,46
2065,00,98,48
2064,00,98,49
2063,00,98,52
2062,00,98,56
2061,00,98,57
2060,00,98,58
2059,00,98,59
2058,00,98,62
2057,00,98,64
2056,00,98,65
2055,00,98,69
2054,00,98,73
2053,00,98,73
2052,00,98,68
2051,00,98,63
2050,00,98,61
2049,00,98,64
2048,00,98,69
2047,00,98,72
2046,00,98,73
2045,00,98,72
2044,00,98,74
2043,00,98,78
2042,00,98,79
2041,00,98,77
2040,00,98,72
2039,00,98,72
2038,00,98,77
2037,00,98,82
2036,00,98,86
2035,00,98,88
2034,00,98,89
2033,00,98,90
2032,00,98,92
2031,00,98,94
2030,00,98,94
2029,00,98,92
2028,00,98,88
2027,00,98,84
2026,00,98,83
2025,00,98,83
2024,00,98,86
2023,00,98,91
2022,00,98,94
2021,00,98,94
2020,00,98,94
2019,00,98,96
2018,00,98,98
2017,00,98,97
2016,00,98,97
2015,00,98,98
2014,00,98,98
2013,00,98,97
2012,00,98,94
2011,00,98,93
2010,00,98,93
2009,00,98,93
2008,00,98,95
2007,00,98,99
2006,00,99,02
2005,00,99,01
2004,00,98,97
2003,00,98,95
2002,00,98,96
2001,00,98,99
2000,00,99,02
1999,00,99,04
1998,00,99,03
1997,00,99,00
1996,00,98,97
1995,00,98,95
1994,00,98,94
1993,00,98,92
1992,00,98,91
1991,00,98,95
1990,00,98,99
1989,00,98,96
1988,00,98,90
1987,00,98,86
1986,00,98,86
1985,00,98,87
1984,00,98,85
1983,00,98,82
1982,00,98,80
1981,00,98,77
1980,00,98,74
1979,00,98,73
1978,00,98,81
1977,00,98,93
1976,00,99,02
1975,00,99,04
1974,00,99,03
1973,00,99,00
1972,00,98,97
1971,00,98,98
1970,00,99,02
1969,00,99,07
1968,00,99,11
1967,00,99,12
1966,00,99,13
1965,00,99,12
1964,00,99,10
1963,00,99,08
1962,00,99,06
1961,00,99,05
1960,00,99,07
1959,00,99,10
1958,00,99,11
1957,00,99,09
1956,00,99,06
1955,00,99,06
1954,00,99,08
1953,00,99,12
1952,00,99,14
1951,00,99,12
1950,00,99,10
1949,00,99,09
1948,00,99,10
1947,00,99,11
1946,00,99,11
1945,00,99,10
1944,00,99,09
1943,00,99,11
1942,00,99,12
1941,00,99,13
1940,00,99,13
1939,00,99,14
1938,00,99,14
1937,00,99,13
1936,00,99,13
1935,00,99,13
1934,00,99,15
1933,00,99,15
1932,00,99,14
1931,00,99,14
1930,00,99,15
1929,00,99,15
1928,00,99,14
1927,00,99,14
1926,00,99,15
1925,00,99,17
1924,00,99,18
1923,00,99,17
1922,00,99,15
1921,00,99,13
1920,00,99,14
1919,00,99,16
1918,00,99,17
1917,00,99,15
1916,00,99,13
1915,00,99,14
1914,00,99,16
1913,00,99,17
1912,00,99,17
1911,00,99,17
1910,00,99,16
1909,00,99,14
1908,00,99,14
1907,00,99,15
1906,00,99,16
1905,00,99,16
1904,00,99,15
1903,00,99,17
1902,00,99,19
1901,00,99,21
1900,00,99,21
1899,00,99,20
1898,00,99,19
1897,00,99,17
1896,00,99,15
1895,00,99,16
1894,00,99,19
1893,00,99,21
1892,00,99,22
1891,00,99,22
1890,00,99,23
1889,00,99,22
1888,00,99,21
1887,00,99,20
1886,00,99,19
1885,00,99,17
1884,00,99,16
1883,00,99,18
1882,00,99,21
1881,00,99,21
1880,00,99,20
1879,00,99,19
1878,00,99,19
1877,00,99,19
1876,00,99,18
1875,00,99,17
1874,00,99,18
1873,00,99,19
1872,00,99,19
1871,00,99,18
1870,00,99,17
1869,00,99,18
1868,00,99,18
1867,00,99,19
1866,00,99,21
1865,00,99,21
1864,00,99,22
1863,00,99,23
1862,00,99,23
1861,00,99,21
1860,00,99,19
1859,00,99,19
1858,00,99,21
1857,00,99,23
1856,00,99,22
1855,00,99,20
1854,00,99,18
1853,00,99,17
1852,00,99,16
1851,00,99,16
1850,00,99,17
1849,00,99,19
1848,00,99,20
1847,00,99,21
1846,00,99,20
1845,00,99,18
1844,00,99,16
1843,00,99,15
1842,00,99,15
1841,00,99,16
1840,00,99,16
1839,00,99,17
1838,00,99,16
1837,00,99,15
1836,00,99,14
1835,00,99,15
1834,00,99,16
1833,00,99,15
1832,00,99,14
1831,00,99,13
1830,00,99,14
1829,00,99,14
1828,00,99,15
1827,00,99,15
1826,00,99,15
1825,00,99,13
1824,00,99,10
1823,00,99,09
1822,00,99,09
1821,00,99,09
1820,00,99,08
1819,00,99,08
1818,00,99,10
1817,00,99,11
1816,00,99,09
1815,00,99,08
1814,00,99,07
1813,00,99,06
1812,00,99,05
1811,00,99,05
1810,00,99,07
1809,00,99,07
1808,00,99,06
1807,00,99,04
1806,00,99,04
1805,00,99,03
1804,00,99,01
1803,00,98,99
1802,00,98,99
1801,00,98,99
1800,00,98,99
1799,00,98,99
1798,00,99,00
1797,00,99,00
1796,00,98,97
1795,00,98,95
1794,00,98,94
1793,00,98,93
1792,00,98,92
1791,00,98,92
1790,00,98,93
1789,00,98,93
1788,00,98,93
1787,00,98,92
1786,00,98,93
1785,00,98,93
1784,00,98,92
1783,00,98,91
1782,00,98,91
1781,00,98,90
1780,00,98,89
1779,00,98,89
1778,00,98,89
1777,00,98,88
1776,00,98,87
1775,00,98,85
1774,00,98,83
1773,00,98,83
1772,00,98,83
1771,00,98,82
1770,00,98,82
1769,00,98,81
1768,00,98,80
1767,00,98,78
1766,00,98,77
1765,00,98,76
1764,00,98,75
1763,00,98,73
1762,00,98,70
1761,00,98,70
1760,00,98,69
1759,00,98,68
1758,00,98,66
1757,00,98,66
1756,00,98,65
1755,00,98,64
1754,00,98,63
1753,00,98,63
1752,00,98,63
1751,00,98,61
1750,00,98,58
1749,00,98,56
1748,00,98,56
1747,00,98,54
1746,00,98,52
1745,00,98,49
1744,00,98,47
1743,00,98,44
1742,00,98,42
1741,00,98,39
1740,00,98,38
1739,00,98,36
1738,00,98,35
1737,00,98,34
1736,00,98,33
1735,00,98,31
1734,00,98,29
1733,00,98,27
1732,00,98,26
1731,00,98,25
1730,00,98,23
1729,00,98,21
1728,00,98,21
1727,00,98,21
1726,00,98,21
1725,00,98,20
1724,00,98,19
1723,00,98,18
1722,00,98,19
1721,00,98,20
1720,00,98,20
1719,00,98,21
1718,00,98,23
1717,00,98,23
1716,00,98,21
1715,00,98,21
1714,00,98,22
1713,00,98,23
1712,00,98,23
1711,00,98,22
1710,00,98,24
1709,00,98,25
1708,00,98,26
1707,00,98,27
1706,00,98,30
1705,00,98,31
1704,00,98,31
1703,00,98,32
1702,00,98,33
1701,00,98,34
1700,00,98,33
1699,00,98,35
1698,00,98,41
1697,00,98,43
1696,00,98,41
1695,00,98,40
1694,00,98,41
1693,00,98,43
1692,00,98,44
1691,00,98,45
1690,00,98,46
1689,00,98,47
1688,00,98,48
1687,00,98,49
1686,00,98,49
1685,00,98,49
1684,00,98,49
1683,00,98,49
1682,00,98,49
1681,00,98,50
1680,00,98,51
1679,00,98,52
1678,00,98,52
1677,00,98,52
1676,00,98,52
1675,00,98,53
1674,00,98,52
1673,00,98,52
1672,00,98,52
1671,00,98,53
1670,00,98,54
1669,00,98,55
1668,00,98,56
1667,00,98,58
1666,00,98,58
1665,00,98,58
1664,00,98,59
1663,00,98,60
1662,00,98,61
1661,00,98,62
1660,00,98,63
1659,00,98,65
1658,00,98,65
1657,00,98,65
1656,00,98,65
1655,00,98,65
1654,00,98,64
1653,00,98,64
1652,00,98,67
1651,00,98,70
1650,00,98,70
1649,00,98,70
1648,00,98,70
1647,00,98,72
1646,00,98,73
1645,00,98,73
1644,00,98,73
1643,00,98,74
1642,00,98,75
1641,00,98,77
1640,00,98,77
1639,00,98,78
1638,00,98,79
1637,00,98,79
1636,00,98,80
1635,00,98,80
1634,00,98,79
1633,00,98,78
1632,00,98,78
1631,00,98,80
1630,00,98,80
1629,00,98,78
1628,00,98,77
1627,00,98,77
1626,00,98,76
1625,00,98,73
1624,00,98,71
1623,00,98,71
1622,00,98,70
1621,00,98,66
1620,00,98,61
1619,00,98,58
1618,00,98,52
1617,00,98,42
1616,00,98,30
1615,00,98,20
1614,00,98,09
1613,00,97,96
1612,00,97,84
1611,00,97,74
1610,00,97,65
1609,00,97,57
1608,00,97,53
1607,00,97,53
1606,00,97,56
1605,00,97,60
1604,00,97,66
1603,00,97,72
1602,00,97,75
1601,00,97,76
1600,00,97,76
1599,00,97,76
1598,00,97,75
1597,00,97,74
1596,00,97,73
1595,00,97,75
1594,00,97,77
1593,00,97,80
1592,00,97,82
1591,00,97,85
1590,00,97,88
1589,00,97,91
1588,00,97,96
1587,00,98,01
1586,00,98,05
1585,00,98,09
1584,00,98,13
1583,00,98,19
1582,00,98,22
1581,00,98,24
1580,00,98,27
1579,00,98,30
1578,00,98,33
1577,00,98,33
1576,00,98,34
1575,00,98,35
1574,00,98,34
1573,00,98,32
1572,00,98,32
1571,00,98,34
1570,00,98,35
1569,00,98,36
1568,00,98,38
1567,00,98,41
1566,00,98,42
1565,00,98,43
1564,00,98,45
1563,00,98,46
1562,00,98,46
1561,00,98,44
1560,00,98,45
1559,00,98,51
1558,00,98,50
1557,00,98,46
1556,00,98,46
1555,00,98,47
1554,00,98,49
1553,00,98,50
1552,00,98,51
1551,00,98,53
1550,00,98,55
1549,00,98,57
1548,00,98,59
1547,00,98,62
1546,00,98,64
1545,00,98,64
1544,00,98,64
1543,00,98,65
1542,00,98,67
1541,00,98,69
1540,00,98,69
1539,00,98,70
1538,00,98,69
1537,00,98,65
1536,00,98,62
1535,00,98,60
1534,00,98,59
1533,00,98,57
1532,00,98,54
1531,00,98,53
1530,00,98,52
1529,00,98,49
1528,00,98,44
1527,00,98,38
1526,00,98,31
1525,00,98,22
1524,00,98,12
1523,00,98,02
1522,00,97,93
1521,00,97,83
1520,00,97,77
1519,00,97,76
1518,00,97,79
1517,00,97,81
1516,00,97,83
1515,00,97,85
1514,00,97,88
1513,00,97,92
1512,00,97,95
1511,00,97,99
1510,00,98,04
1509,00,98,09
1508,00,98,11
1507,00,98,11
1506,00,98,11
1505,00,98,12
1504,00,98,14
1503,00,98,18
1502,00,98,24
1501,00,98,30
1500,00,98,34
1499,00,98,37
1498,00,98,41
1497,00,98,47
1496,00,98,53
1495,00,98,59
1494,00,98,66
1493,00,98,71
1492,00,98,73
1491,00,98,75
1490,00,98,76
1489,00,98,75
1488,00,98,70
1487,00,98,65
1486,00,98,61
1485,00,98,56
1484,00,98,50
1483,00,98,44
1482,00,98,40
1481,00,98,35
1480,00,98,30
1479,00,98,26
1478,00,98,25
1477,00,98,25
1476,00,98,29
1475,00,98,37
1474,00,98,44
1473,00,98,38
1472,00,98,12
1471,00,97,77
1470,00,97,43
1469,00,97,12
1468,00,96,88
1467,00,96,74
1466,00,96,77
1465,00,96,96
1464,00,97,18
1463,00,97,32
1462,00,97,38
1461,00,97,40
1460,00,97,43
1459,00,97,49
1458,00,97,59
1457,00,97,74
1456,00,97,89
1455,00,98,01
1454,00,98,11
1453,00,98,22
1452,00,98,33
1451,00,98,41
1450,00,98,48
1449,00,98,54
1448,00,98,60
1447,00,98,64
1446,00,98,68
1445,00,98,73
1444,00,98,78
1443,00,98,82
1442,00,98,86
1441,00,98,90
1440,00,98,92
1439,00,98,93
1438,00,98,93
1437,00,98,96
1436,00,98,99
1435,00,99,01
1434,00,99,02
1433,00,99,04
1432,00,99,06
1431,00,99,08
1430,00,99,09
1429,00,99,11
1428,00,99,11
1427,00,99,11
1426,00,99,10
1425,00,99,12
1424,00,99,15
1423,00,99,17
1422,00,99,18
1421,00,99,22
1420,00,99,28
1419,00,99,34
1418,00,99,40
1417,00,99,46
1416,00,99,51
1415,00,99,55
1414,00,99,59
1413,00,99,66
1412,00,99,75
1411,00,99,83
1410,00,99,92
1409,00,100,02
1408,00,100,14
1407,00,100,25
1406,00,100,36
1405,00,100,50
1404,00,100,68
1403,00,100,85
1402,00,101,01
1401,00,101,19
1400,00,101,40
1399,00,101,60
1398,00,101,75
1397,00,101,89
1396,00,102,02
1395,00,102,12
1394,00,102,17
1393,00,102,19
1392,00,102,20
1391,00,102,19
1390,00,102,18
1389,00,102,23
1388,00,102,31
1387,00,102,37
1386,00,102,39
1385,00,102,42
1384,00,102,46
1383,00,102,48
1382,00,102,45
1381,00,102,37
1380,00,102,26
1379,00,102,12
1378,00,101,99
1377,00,101,88
1376,00,101,79
1375,00,101,69
1374,00,101,59
1373,00,101,48
1372,00,101,37
1371,00,101,24
1370,00,101,10
1369,00,100,97
1368,00,100,86
1367,00,100,76
1366,00,100,67
1365,00,100,60
1364,00,100,52
1363,00,100,43
1362,00,100,34
1361,00,100,26
1360,00,100,18
1359,00,100,10
1358,00,100,02
1357,00,99,94
1356,00,99,87
1355,00,99,79
1354,00,99,72
1353,00,99,66
1352,00,99,61
1351,00,99,56
1350,00,99,51
1349,00,99,48
1348,00,99,46
1347,00,99,42
1346,00,99,37
1345,00,99,33
1344,00,99,30
1343,00,99,29
1342,00,99,28
1341,00,99,27
1340,00,99,26
1339,00,99,25
1338,00,99,23
1337,00,99,21
1336,00,99,19
1335,00,99,17
1334,00,99,14
1333,00,99,10
1332,00,99,04
1331,00,98,96
1330,00,98,88
1329,00,98,80
1328,00,98,72
1327,00,98,65
1326,00,98,58
1325,00,98,52
1324,00,98,46
1323,00,98,41
1322,00,98,37
1321,00,98,33
1320,00,98,31
1319,00,98,29
1318,00,98,27
1317,00,98,26
1316,00,98,24
1315,00,98,23
1314,00,98,21
1313,00,98,20
1312,00,98,19
1311,00,98,18
1310,00,98,17
1309,00,98,15
1308,00,98,13
1307,00,98,11
1306,00,98,09
1305,00,98,08
1304,00,98,08
1303,00,98,07
1302,00,98,06
1301,00,98,04
1300,00,98,01
1299,00,97,97
1298,00,97,93
1297,00,97,89
1296,00,97,84
1295,00,97,79
1294,00,97,74
1293,00,97,70
1292,00,97,66
1291,00,97,61
1290,00,97,56
1289,00,97,52
1288,00,97,47
1287,00,97,44
1286,00,97,41
1285,00,97,39
1284,00,97,38
1283,00,97,37
1282,00,97,38
1281,00,97,41
1280,00,97,45
1279,00,97,50
1278,00,97,57
1277,00,97,66
1276,00,97,77
1275,00,97,88
1274,00,98,00
1273,00,98,12
1272,00,98,25
1271,00,98,36
1270,00,98,47
1269,00,98,56
1268,00,98,63
1267,00,98,68
1266,00,98,72
1265,00,98,74
1264,00,98,73
1263,00,98,69
1262,00,98,63
1261,00,98,56
1260,00,98,48
1259,00,98,38
1258,00,98,28
1257,00,98,19
1256,00,98,12
1255,00,98,07
1254,00,98,01
1253,00,97,94
1252,00,97,86
1251,00,97,73
1250,00,97,58
1249,00,97,40
1248,00,97,21
1247,00,97,06
1246,00,96,94
1245,00,96,87
1244,00,96,85
1243,00,96,86
1242,00,96,88
1241,00,96,88
1240,00,96,86
1239,00,96,82
1238,00,96,74
1237,00,96,64
1236,00,96,51
1235,00,96,37
1234,00,96,19
1233,00,95,99
1232,00,95,77
1231,00,95,55
1230,00,95,32
1229,00,95,09
1228,00,94,84
1227,00,94,59
1226,00,94,35
1225,00,94,13
1224,00,93,90
1223,00,93,67
1222,00,93,44
1221,00,93,21
1220,00,92,98
1219,00,92,75
1218,00,92,53
1217,00,92,28
1216,00,92,01
1215,00,91,72
1214,00,91,43
1213,00,91,14
1212,00,90,84
1211,00,90,55
1210,00,90,26
1209,00,89,96
1208,00,89,65
1207,00,89,34
1206,00,89,06
1205,00,88,78
1204,00,88,49
1203,00,88,19
1202,00,87,90
1201,00,87,59
1200,00,87,26
1199,00,86,94
1198,00,86,62
1197,00,86,31
1196,00,86,00
1195,00,85,70
1194,00,85,43
1193,00,85,15
1192,00,84,85
1191,00,84,57
1190,00,84,32
1189,00,84,10
1188,00,83,87
1187,00,83,67
1186,00,83,48
1185,00,83,31
1184,00,83,14
1183,00,83,02
1182,00,82,94
1181,00,82,88
1180,00,82,82
1179,00,82,80
1178,00,82,83
1177,00,82,87
1176,00,82,92
1175,00,83,01
1174,00,83,15
1173,00,83,30
1172,00,83,48
1171,00,83,67
1170,00,83,88
1169,00,84,04
1168,00,84,18
1167,00,84,32
1166,00,84,47
1165,00,84,59
1164,00,84,68
1163,00,84,73
1162,00,84,78
1161,00,84,80
1160,00,84,81
1159,00,84,81
1158,00,84,81
1157,00,84,78
1156,00,84,70
1155,00,84,61
1154,00,84,50
1153,00,84,37
1152,00,84,21
1151,00,84,04
1150,00,83,85
1149,00,83,63
1148,00,83,37
1147,00,83,09
1146,00,82,81
1145,00,82,50
1144,00,82,18
1143,00,81,85
1142,00,81,55
1141,00,81,24
1140,00,80,91
1139,00,80,60
1138,00,80,32
1137,00,80,00
1136,00,79,64
1135,00,79,27
1134,00,78,92
1133,00,78,59
1132,00,78,26
1131,00,77,95
1130,00,77,64
1129,00,77,30
1128,00,76,93
1127,00,76,57
1126,00,76,22
1125,00,75,87
1124,00,75,49
1123,00,75,13
1122,00,74,80
1121,00,74,47
1120,00,74,11
1119,00,73,76
1118,00,73,43
1117,00,73,08
1116,00,72,72
1115,00,72,37
1114,00,72,05
1113,00,71,72
1112,00,71,38
1111,00,71,07
1110,00,70,80
1109,00,70,52
1108,00,70,23
1107,00,69,96
1106,00,69,72
1105,00,69,47
1104,00,69,21
1103,00,68,98
1102,00,68,79
1101,00,68,60
1100,00,68,40
1099,00,68,23
1098,00,68,09
1097,00,67,93
1096,00,67,76
1095,00,67,62
1094,00,67,52
1093,00,67,40
1092,00,67,25
1091,00,67,11
1090,00,66,99
1089,00,66,85
1088,00,66,67
1087,00,66,50
1086,00,66,36
1085,00,66,22
1084,00,66,05
1083,00,65,92
1082,00,65,83
1081,00,65,72
1080,00,65,60
1079,00,65,51
1078,00,65,46
1077,00,65,40
1076,00,65,32
1075,00,65,30
1074,00,65,35
1073,00,65,38
1072,00,65,34
1071,00,65,31
1070,00,65,32
1069,00,65,32
1068,00,65,31
1067,00,65,33
1066,00,65,41
1065,00,65,49
1064,00,65,57
1063,00,65,71
1062,00,65,92
1061,00,66,12
1060,00,66,32
1059,00,66,56
1058,00,66,86
1057,00,67,17
1056,00,67,47
1055,00,67,79
1054,00,68,16
1053,00,68,51
1052,00,68,86
1051,00,69,23
1050,00,69,65
1049,00,70,05
1048,00,70,42
1047,00,70,80
1046,00,71,19
1045,00,71,53
1044,00,71,81
1043,00,72,08
1042,00,72,33
1041,00,72,53
1040,00,72,66
1039,00,72,75
1038,00,72,81
1037,00,72,82
1036,00,72,75
1035,00,72,65
1034,00,72,54
1033,00,72,38
1032,00,72,16
1031,00,71,92
1030,00,71,69
1029,00,71,42
1028,00,71,11
1027,00,70,80
1026,00,70,49
1025,00,70,15
1024,00,69,78
1023,00,69,42
1022,00,69,09
1021,00,68,73
1020,00,68,34
1019,00,67,96
1018,00,67,62
1017,00,67,28
1016,00,66,94
1015,00,66,63
1014,00,66,37
1013,00,66,11
1012,00,65,84
1011,00,65,61
1010,00,65,43
1009,00,65,26
1008,00,65,08
1007,00,64,94
1006,00,64,86
1005,00,64,80
1004,00,64,74
1003,00,64,73
1002,00,64,76
1001,00,64,79
1000,00,64,81
999,00,64,86
998,00,64,94
997,00,65,02
996,00,65,06
995,00,65,11
994,00,65,18
993,00,65,21
992,00,65,20
991,00,65,18
990,00,65,16
989,00,65,08
988,00,64,95
987,00,64,81
986,00,64,68
985,00,64,50
984,00,64,27
983,00,64,05
982,00,63,84
981,00,63,62
980,00,63,37
979,00,63,14
978,00,62,95
977,00,62,77
976,00,62,57
975,00,62,43
974,00,62,35
973,00,62,27
972,00,62,17
971,00,62,09
970,00,62,03
969,00,61,91
968,00,61,73
967,00,61,53
966,00,61,33
965,00,61,06
964,00,60,72
963,00,60,38
962,00,60,07
961,00,59,76
960,00,59,45
959,00,59,18
958,00,58,93
957,00,58,60
956,00,58,18
955,00,57,78
954,00,57,44
953,00,57,09
952,00,56,67
951,00,56,26
950,00,55,89
949,00,55,51
948,00,55,10
947,00,54,74
946,00,54,46
945,00,54,19
944,00,53,88
943,00,53,58
942,00,53,32
941,00,53,03
940,00,52,70
939,00,52,39
938,00,52,13
937,00,51,83
936,00,51,47
935,00,51,14
934,00,50,88
933,00,50,61
932,00,50,31
931,00,50,05
930,00,49,86
929,00,49,69
928,00,49,49
927,00,49,34
926,00,49,25
925,00,49,15
924,00,49,02
923,00,48,92
922,00,48,91
921,00,48,91
920,00,48,87
919,00,48,85
918,00,48,86
917,00,48,86
916,00,48,83
915,00,48,84
914,00,48,92
913,00,48,97
912,00,48,96
911,00,48,98
910,00,49,06
909,00,49,13
908,00,49,15
907,00,49,19
906,00,49,27
905,00,49,33
904,00,49,33
903,00,49,35
902,00,49,42
901,00,49,46
900,00,49,45
899,00,49,47
898,00,49,55
897,00,49,60
896,00,49,59
895,00,49,60
894,00,49,67
893,00,49,71
892,00,49,69
891,00,49,70
890,00,49,75
889,00,49,76
888,00,49,70
887,00,49,66
886,00,49,67
885,00,49,65
884,00,49,57
883,00,49,49
882,00,49,45
881,00,49,38
880,00,49,26
879,00,49,17
878,00,49,13
877,00,49,06
876,00,48,93
875,00,48,83
874,00,48,78
873,00,48,70
872,00,48,56
871,00,48,45
870,00,48,40
869,00,48,33
868,00,48,22
867,00,48,12
866,00,48,06
865,00,47,95
864,00,47,79
863,00,47,67
862,00,47,60
861,00,47,50
860,00,47,33
859,00,47,17
858,00,47,07
857,00,46,95
856,00,46,77
855,00,46,62
854,00,46,50
853,00,46,34
852,00,46,11
851,00,45,91
850,00,45,77
849,00,45,58
848,00,45,30
847,00,45,02
846,00,44,77
845,00,44,46
844,00,44,10
843,00,43,79
842,00,43,55
841,00,43,24
840,00,42,83
839,00,42,43
838,00,42,09
837,00,41,68
836,00,41,19
835,00,40,72
834,00,40,33
833,00,39,91
832,00,39,40
831,00,38,93
830,00,38,55
829,00,38,14
828,00,37,65
827,00,37,20
826,00,36,86
825,00,36,51
824,00,36,09
823,00,35,71
822,00,35,42
821,00,35,12
820,00,34,77
819,00,34,45
818,00,34,21
817,00,33,95
816,00,33,65
815,00,33,41
814,00,33,25
813,00,33,05
812,00,32,78
811,00,32,55
810,00,32,41
809,00,32,26
808,00,32,06
807,00,31,93
806,00,31,92
805,00,31,91
804,00,31,83
803,00,31,79
802,00,31,83
801,00,31,84
800,00,31,77
799,00,31,73
798,00,31,77
797,00,31,77
796,00,31,69
795,00,31,67
794,00,31,74
793,00,31,79
792,00,31,78
791,00,31,78
790,00,31,85
789,00,31,91
788,00,31,91
787,00,31,94
786,00,32,04
785,00,32,11
784,00,32,10
783,00,32,13
782,00,32,23
781,00,32,29
780,00,32,29
779,00,32,32
778,00,32,40
777,00,32,45
776,00,32,41
775,00,32,41
774,00,32,49
773,00,32,54
772,00,32,54
771,00,32,59
770,00,32,70
769,00,32,77
768,00,32,76
767,00,32,77
766,00,32,87
765,00,32,95
764,00,32,97
763,00,33,04
762,00,33,19
761,00,33,33
760,00,33,41
759,00,33,50
758,00,33,66
757,00,33,78
756,00,33,86
755,00,33,97
754,00,34,16
753,00,34,32
752,00,34,44
751,00,34,62
750,00,34,86
749,00,35,04
748,00,35,14
747,00,35,28
746,00,35,51
745,00,35,71
744,00,35,83
743,00,35,95
742,00,36,12
741,00,36,27
740,00,36,35
739,00,36,47
738,00,36,65
737,00,36,77
736,00,36,80
735,00,36,86
734,00,37,00
733,00,37,10
732,00,37,11
731,00,37,16
730,00,37,28
729,00,37,37
728,00,37,37
727,00,37,41
726,00,37,54
725,00,37,63
724,00,37,63
723,00,37,65
722,00,37,74
721,00,37,77
720,00,37,68
719,00,37,60
718,00,37,59
717,00,37,56
716,00,37,44
715,00,37,32
714,00,37,25
713,00,37,12
712,00,36,91
711,00,36,73
710,00,36,65
709,00,36,53
708,00,36,29
707,00,36,09
706,00,36,02
705,00,35,98
704,00,35,90
703,00,35,89
702,00,35,97
701,00,36,05
700,00,36,07
699,00,36,15
698,00,36,33
697,00,36,50
696,00,36,58
695,00,36,71
694,00,36,91
693,00,37,08
692,00,37,16
691,00,37,27
690,00,37,46
689,00,37,61
688,00,37,66
687,00,37,77
686,00,37,98
685,00,38,14
684,00,38,20
683,00,38,33
682,00,38,59
681,00,38,78
680,00,38,83
679,00,38,91
678,00,39,09
677,00,39,23
676,00,39,28
675,00,39,40
674,00,39,65
673,00,39,86
672,00,39,96
671,00,40,13
670,00,40,39
669,00,40,39
668,00,39,85
667,00,39,70
666,00,40,15
665,00,40,58
664,00,40,82
663,00,41,01
662,00,41,27
661,00,41,48
660,00,41,54
659,00,41,61
658,00,41,84
657,00,42,06
656,00,42,15
655,00,42,26
654,00,42,51
653,00,42,74
652,00,42,81
651,00,42,90
650,00,43,14
