Created as New Dataset,Sample 011 By User Date Wednesday, March 05 2025
cm-1,%T
4000,00,98,87
3999,00,98,89
3998,00,98,91
3997,00,98,90
3996,00,98,90
3995,00,98,90
3994,00,98,90
3993,00,98,89
3992,00,98,88
3991,00,98,87
3990,00,98,86
3989,00,98,86
3988,00,98,87
3987,00,98,88
3986,00,98,89
3985,00,98,90
3984,00,98,90
3983,00,98,91
3982,00,98,90
3981,00,98,90
3980,00,98,89
3979,00,98,88
3978,00,98,87
3977,00,98,87
3976,00,98,88
3975,00,98,88
3974,00,98,88
3973,00,98,89
3972,00,98,90
3971,00,98,90
3970,00,98,90
3969,00,98,89
3968,00,98,88
3967,00,98,89
3966,00,98,90
3965,00,98,92
3964,00,98,92
3963,00,98,92
3962,00,98,92
3961,00,98,92
3960,00,98,93
3959,00,98,92
3958,00,98,92
3957,00,98,91
3956,00,98,91
3955,00,98,92
3954,00,98,93
3953,00,98,93
3952,00,98,93
3951,00,98,92
3950,00,98,91
3949,00,98,92
3948,00,98,93
3947,00,98,95
3946,00,98,95
3945,00,98,94
3944,00,98,93
3943,00,98,91
3942,00,98,90
3941,00,98,89
3940,00,98,89
3939,00,98,89
3938,00,98,90
3937,00,98,91
3936,00,98,92
3935,00,98,93
3934,00,98,93
3933,00,98,92
3932,00,98,91
3931,00,98,90
3930,00,98,89
3929,00,98,90
3928,00,98,91
3927,00,98,91
3926,00,98,90
3925,00,98,88
3924,00,98,88
3923,00,98,89
3922,00,98,90
3921,00,98,92
3920,00,98,93
3919,00,98,93
3918,00,98,93
3917,00,98,93
3916,00,98,92
3915,00,98,91
3914,00,98,91
3913,00,98,91
3912,00,98,91
3911,00,98,91
3910,00,98,91
3909,00,98,91
3908,00,98,91
3907,00,98,91
3906,00,98,92
3905,00,98,92
3904,00,98,93
3903,00,98,93
3902,00,98,93
3901,00,98,91
3900,00,98,90
3899,00,98,89
3898,00,98,90
3897,00,98,91
3896,00,98,92
3895,00,98,92
3894,00,98,92
3893,00,98,91
3892,00,98,91
3891,00,98,91
3890,00,98,92
3889,00,98,92
3888,00,98,92
3887,00,98,91
3886,00,98,91
3885,00,98,92
3884,00,98,93
3883,00,98,92
3882,00,98,91
3881,00,98,91
3880,00,98,91
3879,00,98,92
3878,00,98,92
3877,00,98,92
3876,00,98,91
3875,00,98,91
3874,00,98,92
3873,00,98,94
3872,00,98,95
3871,00,98,94
3870,00,98,93
3869,00,98,93
3868,00,98,94
3867,00,98,93
3866,00,98,92
3865,00,98,92
3864,00,98,91
3863,00,98,91
3862,00,98,90
3861,00,98,90
3860,00,98,92
3859,00,98,93
3858,00,98,93
3857,00,98,93
3856,00,98,92
3855,00,98,90
3854,00,98,90
3853,00,98,91
3852,00,98,92
3851,00,98,92
3850,00,98,91
3849,00,98,91
3848,00,98,93
3847,00,98,94
3846,00,98,95
3845,00,98,96
3844,00,98,96
3843,00,98,97
3842,00,98,98
3841,00,98,97
3840,00,98,97
3839,00,98,96
3838,00,98,96
3837,00,98,95
3836,00,98,93
3835,00,98,92
3834,00,98,92
3833,00,98,91
3832,00,98,90
3831,00,98,90
3830,00,98,91
3829,00,98,90
3828,00,98,90
3827,00,98,91
3826,00,98,92
3825,00,98,93
3824,00,98,93
3823,00,98,92
3822,00,98,91
3821,00,98,93
3820,00,98,95
3819,00,98,96
3818,00,98,96
3817,00,98,94
3816,00,98,92
3815,00,98,91
3814,00,98,91
3813,00,98,91
3812,00,98,91
3811,00,98,92
3810,00,98,92
3809,00,98,92
3808,00,98,92
3807,00,98,93
3806,00,98,94
3805,00,98,94
3804,00,98,94
3803,00,98,93
3802,00,98,93
3801,00,98,93
3800,00,98,93
3799,00,98,92
3798,00,98,91
3797,00,98,91
3796,00,98,92
3795,00,98,92
3794,00,98,92
3793,00,98,90
3792,00,98,89
3791,00,98,89
3790,00,98,89
3789,00,98,89
3788,00,98,89
3787,00,98,88
3786,00,98,88
3785,00,98,88
3784,00,98,88
3783,00,98,88
3782,00,98,88
3781,00,98,88
3780,00,98,87
3779,00,98,88
3778,00,98,88
3777,00,98,87
3776,00,98,87
3775,00,98,87
3774,00,98,87
3773,00,98,88
3772,00,98,87
3771,00,98,87
3770,00,98,86
3769,00,98,86
3768,00,98,86
3767,00,98,86
3766,00,98,85
3765,00,98,86
3764,00,98,86
3763,00,98,87
3762,00,98,86
3761,00,98,86
3760,00,98,85
3759,00,98,86
3758,00,98,86
3757,00,98,87
3756,00,98,88
3755,00,98,89
3754,00,98,91
3753,00,98,93
3752,00,98,95
3751,00,98,96
3750,00,98,97
3749,00,98,97
3748,00,98,98
3747,00,98,98
3746,00,98,97
3745,00,98,96
3744,00,98,95
3743,00,98,94
3742,00,98,93
3741,00,98,93
3740,00,98,93
3739,00,98,95
3738,00,98,97
3737,00,98,98
3736,00,98,96
3735,00,98,94
3734,00,98,92
3733,00,98,91
3732,00,98,91
3731,00,98,92
3730,00,98,93
3729,00,98,95
3728,00,98,96
3727,00,98,97
3726,00,98,97
3725,00,98,95
3724,00,98,92
3723,00,98,90
3722,00,98,88
3721,00,98,87
3720,00,98,87
3719,00,98,88
3718,00,98,89
3717,00,98,89
3716,00,98,89
3715,00,98,89
3714,00,98,89
3713,00,98,91
3712,00,98,92
3711,00,98,93
3710,00,98,93
3709,00,98,94
3708,00,98,94
3707,00,98,94
3706,00,98,93
3705,00,98,92
3704,00,98,92
3703,00,98,91
3702,00,98,91
3701,00,98,91
3700,00,98,91
3699,00,98,91
3698,00,98,92
3697,00,98,92
3696,00,98,93
3695,00,98,95
3694,00,98,97
3693,00,98,98
3692,00,98,99
3691,00,99,00
3690,00,99,01
3689,00,99,03
3688,00,99,06
3687,00,99,09
3686,00,99,13
3685,00,99,18
3684,00,99,24
3683,00,99,31
3682,00,99,37
3681,00,99,43
3680,00,99,49
3679,00,99,56
3678,00,99,64
3677,00,99,71
3676,00,99,78
3675,00,99,86
3674,00,99,92
3673,00,99,95
3672,00,99,98
3671,00,100,00
3670,00,100,02
3669,00,100,04
3668,00,100,06
3667,00,100,08
3666,00,100,10
3665,00,100,12
3664,00,100,16
3663,00,100,19
3662,00,100,22
3661,00,100,25
3660,00,100,27
3659,00,100,28
3658,00,100,28
3657,00,100,27
3656,00,100,25
3655,00,100,24
3654,00,100,23
3653,00,100,22
3652,00,100,20
3651,00,100,19
3650,00,100,19
3649,00,100,19
3648,00,100,18
3647,00,100,14
3646,00,100,08
3645,00,100,03
3644,00,99,99
3643,00,99,94
3642,00,99,89
3641,00,99,83
3640,00,99,79
3639,00,99,79
3638,00,99,81
3637,00,99,82
3636,00,99,77
3635,00,99,66
3634,00,99,53
3633,00,99,42
3632,00,99,35
3631,00,99,31
3630,00,99,27
3629,00,99,23
3628,00,99,22
3627,00,99,20
3626,00,99,19
3625,00,99,17
3624,00,99,16
3623,00,99,13
3622,00,99,10
3621,00,99,07
3620,00,99,04
3619,00,99,02
3618,00,99,03
3617,00,99,04
3616,00,99,04
3615,00,99,03
3614,00,99,01
3613,00,99,00
3612,00,99,00
3611,00,99,01
3610,00,99,02
3609,00,99,01
3608,00,99,00
3607,00,98,98
3606,00,98,96
3605,00,98,94
3604,00,98,92
3603,00,98,91
3602,00,98,90
3601,00,98,90
3600,00,98,90
3599,00,98,91
3598,00,98,91
3597,00,98,92
3596,00,98,93
3595,00,98,93
3594,00,98,93
3593,00,98,93
3592,00,98,93
3591,00,98,94
3590,00,98,94
3589,00,98,94
3588,00,98,92
3587,00,98,90
3586,00,98,89
3585,00,98,90
3584,00,98,91
3583,00,98,92
3582,00,98,92
3581,00,98,91
3580,00,98,90
3579,00,98,88
3578,00,98,87
3577,00,98,87
3576,00,98,88
3575,00,98,89
3574,00,98,89
3573,00,98,90
3572,00,98,90
3571,00,98,91
3570,00,98,92
3569,00,98,91
3568,00,98,90
3567,00,98,89
3566,00,98,88
3565,00,98,86
3564,00,98,86
3563,00,98,86
3562,00,98,86
3561,00,98,87
3560,00,98,87
3559,00,98,87
3558,00,98,86
3557,00,98,86
3556,00,98,86
3555,00,98,86
3554,00,98,87
3553,00,98,87
3552,00,98,88
3551,00,98,89
3550,00,98,89
3549,00,98,89
3548,00,98,89
3547,00,98,89
3546,00,98,89
3545,00,98,89
3544,00,98,88
3543,00,98,86
3542,00,98,86
3541,00,98,86
3540,00,98,86
3539,00,98,85
3538,00,98,85
3537,00,98,84
3536,00,98,84
3535,00,98,85
3534,00,98,85
3533,00,98,86
3532,00,98,86
3531,00,98,86
3530,00,98,86
3529,00,98,85
3528,00,98,85
3527,00,98,85
3526,00,98,84
3525,00,98,84
3524,00,98,83
3523,00,98,83
3522,00,98,83
3521,00,98,84
3520,00,98,84
3519,00,98,84
3518,00,98,83
3517,00,98,82
3516,00,98,82
3515,00,98,83
3514,00,98,84
3513,00,98,84
3512,00,98,82
3511,00,98,80
3510,00,98,80
3509,00,98,81
3508,00,98,82
3507,00,98,83
3506,00,98,84
3505,00,98,84
3504,00,98,84
3503,00,98,83
3502,00,98,82
3501,00,98,81
3500,00,98,81
3499,00,98,82
3498,00,98,82
3497,00,98,81
3496,00,98,81
3495,00,98,80
3494,00,98,80
3493,00,98,81
3492,00,98,82
3491,00,98,84
3490,00,98,85
3489,00,98,86
3488,00,98,87
3487,00,98,88
3486,00,98,87
3485,00,98,86
3484,00,98,85
3483,00,98,84
3482,00,98,84
3481,00,98,84
3480,00,98,84
3479,00,98,84
3478,00,98,84
3477,00,98,82
3476,00,98,81
3475,00,98,81
3474,00,98,83
3473,00,98,85
3472,00,98,86
3471,00,98,86
3470,00,98,86
3469,00,98,85
3468,00,98,84
3467,00,98,84
3466,00,98,83
3465,00,98,83
3464,00,98,84
3463,00,98,84
3462,00,98,85
3461,00,98,85
3460,00,98,85
3459,00,98,85
3458,00,98,85
3457,00,98,84
3456,00,98,85
3455,00,98,85
3454,00,98,85
3453,00,98,85
3452,00,98,86
3451,00,98,87
3450,00,98,87
3449,00,98,87
3448,00,98,87
3447,00,98,86
3446,00,98,84
3445,00,98,84
3444,00,98,84
3443,00,98,84
3442,00,98,85
3441,00,98,84
3440,00,98,84
3439,00,98,83
3438,00,98,83
3437,00,98,83
3436,00,98,84
3435,00,98,84
3434,00,98,84
3433,00,98,82
3432,00,98,81
3431,00,98,79
3430,00,98,79
3429,00,98,79
3428,00,98,80
3427,00,98,80
3426,00,98,81
3425,00,98,81
3424,00,98,81
3423,00,98,81
3422,00,98,80
3421,00,98,79
3420,00,98,78
3419,00,98,76
3418,00,98,75
3417,00,98,74
3416,00,98,74
3415,00,98,74
3414,00,98,73
3413,00,98,73
3412,00,98,73
3411,00,98,73
3410,00,98,73
3409,00,98,72
3408,00,98,70
3407,00,98,69
3406,00,98,68
3405,00,98,67
3404,00,98,65
3403,00,98,63
3402,00,98,60
3401,00,98,58
3400,00,98,56
3399,00,98,55
3398,00,98,54
3397,00,98,53
3396,00,98,51
3395,00,98,49
3394,00,98,46
3393,00,98,43
3392,00,98,41
3391,00,98,40
3390,00,98,39
3389,00,98,38
3388,00,98,37
3387,00,98,36
3386,00,98,33
3385,00,98,31
3384,00,98,30
3383,00,98,30
3382,00,98,30
3381,00,98,29
3380,00,98,29
3379,00,98,30
3378,00,98,30
3377,00,98,30
3376,00,98,29
3375,00,98,29
3374,00,98,29
3373,00,98,29
3372,00,98,30
3371,00,98,32
3370,00,98,34
3369,00,98,35
3368,00,98,35
3367,00,98,36
3366,00,98,37
3365,00,98,38
3364,00,98,39
3363,00,98,39
3362,00,98,40
3361,00,98,40
3360,00,98,40
3359,00,98,41
3358,00,98,42
3357,00,98,44
3356,00,98,46
3355,00,98,47
3354,00,98,47
3353,00,98,49
3352,00,98,51
3351,00,98,52
3350,00,98,54
3349,00,98,55
3348,00,98,55
3347,00,98,56
3346,00,98,57
3345,00,98,58
3344,00,98,59
3343,00,98,59
3342,00,98,59
3341,00,98,59
3340,00,98,59
3339,00,98,59
3338,00,98,61
3337,00,98,62
3336,00,98,63
3335,00,98,65
3334,00,98,66
3333,00,98,67
3332,00,98,68
3331,00,98,67
3330,00,98,66
3329,00,98,66
3328,00,98,66
3327,00,98,67
3326,00,98,67
3325,00,98,67
3324,00,98,68
3323,00,98,68
3322,00,98,68
3321,00,98,69
3320,00,98,69
3319,00,98,69
3318,00,98,68
3317,00,98,67
3316,00,98,66
3315,00,98,66
3314,00,98,66
3313,00,98,66
3312,00,98,68
3311,00,98,69
3310,00,98,69
3309,00,98,69
3308,00,98,68
3307,00,98,68
3306,00,98,67
3305,00,98,67
3304,00,98,67
3303,00,98,67
3302,00,98,67
3301,00,98,68
3300,00,98,69
3299,00,98,69
3298,00,98,69
3297,00,98,68
3296,00,98,68
3295,00,98,68
3294,00,98,68
3293,00,98,68
3292,00,98,69
3291,00,98,69
3290,00,98,69
3289,00,98,69
3288,00,98,69
3287,00,98,70
3286,00,98,70
3285,00,98,70
3284,00,98,70
3283,00,98,69
3282,00,98,69
3281,00,98,69
3280,00,98,69
3279,00,98,68
3278,00,98,68
3277,00,98,68
3276,00,98,70
3275,00,98,72
3274,00,98,73
3273,00,98,74
3272,00,98,73
3271,00,98,72
3270,00,98,71
3269,00,98,71
3268,00,98,71
3267,00,98,71
3266,00,98,71
3265,00,98,71
3264,00,98,70
3263,00,98,70
3262,00,98,70
3261,00,98,70
3260,00,98,70
3259,00,98,70
3258,00,98,70
3257,00,98,72
3256,00,98,74
3255,00,98,76
3254,00,98,76
3253,00,98,75
3252,00,98,74
3251,00,98,74
3250,00,98,74
3249,00,98,74
3248,00,98,75
3247,00,98,76
3246,00,98,76
3245,00,98,75
3244,00,98,76
3243,00,98,77
3242,00,98,77
3241,00,98,77
3240,00,98,76
3239,00,98,75
3238,00,98,75
3237,00,98,75
3236,00,98,75
3235,00,98,76
3234,00,98,78
3233,00,98,79
3232,00,98,79
3231,00,98,79
3230,00,98,78
3229,00,98,77
3228,00,98,76
3227,00,98,76
3226,00,98,76
3225,00,98,76
3224,00,98,76
3223,00,98,76
3222,00,98,75
3221,00,98,75
3220,00,98,74
3219,00,98,74
3218,00,98,74
3217,00,98,75
3216,00,98,76
3215,00,98,76
3214,00,98,76
3213,00,98,76
3212,00,98,76
3211,00,98,76
3210,00,98,76
3209,00,98,75
3208,00,98,74
3207,00,98,73
3206,00,98,72
3205,00,98,72
3204,00,98,73
3203,00,98,73
3202,00,98,74
3201,00,98,74
3200,00,98,74
3199,00,98,74
3198,00,98,74
3197,00,98,74
3196,00,98,73
3195,00,98,73
3194,00,98,73
3193,00,98,73
3192,00,98,73
3191,00,98,74
3190,00,98,74
3189,00,98,75
3188,00,98,76
3187,00,98,75
3186,00,98,74
3185,00,98,72
3184,00,98,72
3183,00,98,72
3182,00,98,72
3181,00,98,71
3180,00,98,71
3179,00,98,71
3178,00,98,71
3177,00,98,70
3176,00,98,69
3175,00,98,67
3174,00,98,67
3173,00,98,66
3172,00,98,66
3171,00,98,65
3170,00,98,64
3169,00,98,64
3168,00,98,64
3167,00,98,65
3166,00,98,65
3165,00,98,65
3164,00,98,64
3163,00,98,63
3162,00,98,62
3161,00,98,62
3160,00,98,63
3159,00,98,64
3158,00,98,63
3157,00,98,61
3156,00,98,59
3155,00,98,58
3154,00,98,58
3153,00,98,60
3152,00,98,62
3151,00,98,63
3150,00,98,62
3149,00,98,61
3148,00,98,60
3147,00,98,60
3146,00,98,60
3145,00,98,60
3144,00,98,59
3143,00,98,59
3142,00,98,59
3141,00,98,59
3140,00,98,59
3139,00,98,58
3138,00,98,56
3137,00,98,56
3136,00,98,56
3135,00,98,57
3134,00,98,56
3133,00,98,56
3132,00,98,56
3131,00,98,57
3130,00,98,57
3129,00,98,57
3128,00,98,57
3127,00,98,56
3126,00,98,56
3125,00,98,57
3124,00,98,58
3123,00,98,59
3122,00,98,59
3121,00,98,59
3120,00,98,58
3119,00,98,58
3118,00,98,57
3117,00,98,57
3116,00,98,56
3115,00,98,56
3114,00,98,56
3113,00,98,56
3112,00,98,57
3111,00,98,57
3110,00,98,56
3109,00,98,55
3108,00,98,55
3107,00,98,54
3106,00,98,55
3105,00,98,55
3104,00,98,54
3103,00,98,52
3102,00,98,50
3101,00,98,50
3100,00,98,50
3099,00,98,51
3098,00,98,51
3097,00,98,50
3096,00,98,49
3095,00,98,47
3094,00,98,45
3093,00,98,43
3092,00,98,42
3091,00,98,40
3090,00,98,38
3089,00,98,36
3088,00,98,33
3087,00,98,31
3086,00,98,29
3085,00,98,27
3084,00,98,25
3083,00,98,23
3082,00,98,20
3081,00,98,17
3080,00,98,15
3079,00,98,15
3078,00,98,16
3077,00,98,17
3076,00,98,17
3075,00,98,18
3074,00,98,19
3073,00,98,20
3072,00,98,20
3071,00,98,21
3070,00,98,22
3069,00,98,23
3068,00,98,24
3067,00,98,26
3066,00,98,26
3065,00,98,27
3064,00,98,29
3063,00,98,29
3062,00,98,30
3061,00,98,30
3060,00,98,31
3059,00,98,32
3058,00,98,33
3057,00,98,32
3056,00,98,31
3055,00,98,28
3054,00,98,25
3053,00,98,21
3052,00,98,17
3051,00,98,13
3050,00,98,08
3049,00,98,04
3048,00,98,00
3047,00,97,96
3046,00,97,93
3045,00,97,91
3044,00,97,89
3043,00,97,89
3042,00,97,89
3041,00,97,93
3040,00,97,98
3039,00,98,04
3038,00,98,08
3037,00,98,12
3036,00,98,16
3035,00,98,21
3034,00,98,26
3033,00,98,31
3032,00,98,36
3031,00,98,40
3030,00,98,43
3029,00,98,45
3028,00,98,47
3027,00,98,49
3026,00,98,52
3025,00,98,55
3024,00,98,59
3023,00,98,62
3022,00,98,66
3021,00,98,70
3020,00,98,75
3019,00,98,81
3018,00,98,88
3017,00,98,97
3016,00,99,07
3015,00,99,21
3014,00,99,36
3013,00,99,54
3012,00,99,75
3011,00,99,97
3010,00,100,22
3009,00,100,49
3008,00,100,80
3007,00,101,13
3006,00,101,48
3005,00,101,86
3004,00,102,24
3003,00,102,64
3002,00,103,02
3001,00,103,40
3000,00,103,75
2999,00,104,07
2998,00,104,35
2997,00,104,59
2996,00,104,80
2995,00,104,97
2994,00,105,11
2993,00,105,24
2992,00,105,35
2991,00,105,44
2990,00,105,50
2989,00,105,57
2988,00,105,67
2987,00,105,86
2986,00,106,25
2985,00,107,00
2984,00,108,18
2983,00,109,50
2982,00,110,43
2981,00,110,54
2980,00,109,85
2979,00,108,73
2978,00,107,54
2977,00,106,47
2976,00,105,58
2975,00,104,90
2974,00,104,45
2973,00,104,14
2972,00,103,75
2971,00,103,04
2970,00,101,94
2969,00,100,63
2968,00,99,36
2967,00,98,26
2966,00,97,31
2965,00,96,42
2964,00,95,60
2963,00,94,89
2962,00,94,31
2961,00,93,84
2960,00,93,47
2959,00,93,22
2958,00,93,09
2957,00,93,06
2956,00,93,12
2955,00,93,27
2954,00,93,50
2953,00,93,78
2952,00,94,11
2951,00,94,44
2950,00,94,73
2949,00,94,94
2948,00,95,03
2947,00,95,00
2946,00,94,84
2945,00,94,57
2944,00,94,22
2943,00,93,84
2942,00,93,45
2941,00,93,04
2940,00,92,61
2939,00,92,15
2938,00,91,68
2937,00,91,20
2936,00,90,76
2935,00,90,38
2934,00,90,07
2933,00,89,81
2932,00,89,59
2931,00,89,41
2930,00,89,27
2929,00,89,17
2928,00,89,11
2927,00,89,10
2926,00,89,15
2925,00,89,26
2924,00,89,44
2923,00,89,67
2922,00,89,94
2921,00,90,23
2920,00,90,53
2919,00,90,86
2918,00,91,20
2917,00,91,55
2916,00,91,89
2915,00,92,22
2914,00,92,54
2913,00,92,85
2912,00,93,17
2911,00,93,50
2910,00,93,85
2909,00,94,18
2908,00,94,50
2907,00,94,81
2906,00,95,10
2905,00,95,39
2904,00,95,67
2903,00,95,93
2902,00,96,16
2901,00,96,36
2900,00,96,54
2899,00,96,72
2898,00,96,91
2897,00,97,09
2896,00,97,28
2895,00,97,48
2894,00,97,68
2893,00,97,88
2892,00,98,06
2891,00,98,21
2890,00,98,31
2889,00,98,34
2888,00,98,30
2887,00,98,22
2886,00,98,12
2885,00,98,01
2884,00,97,83
2883,00,97,52
2882,00,97,07
2881,00,96,52
2880,00,95,90
2879,00,95,29
2878,00,94,69
2877,00,94,15
2876,00,93,68
2875,00,93,30
2874,00,93,04
2873,00,92,92
2872,00,92,92
2871,00,93,02
2870,00,93,17
2869,00,93,32
2868,00,93,44
2867,00,93,51
2866,00,93,50
2865,00,93,41
2864,00,93,26
2863,00,93,08
2862,00,92,92
2861,00,92,81
2860,00,92,76
2859,00,92,81
2858,00,92,94
2857,00,93,15
2856,00,93,44
2855,00,93,77
2854,00,94,14
2853,00,94,50
2852,00,94,85
2851,00,95,19
2850,00,95,53
2849,00,95,83
2848,00,96,10
2847,00,96,35
2846,00,96,58
2845,00,96,79
2844,00,96,97
2843,00,97,12
2842,00,97,26
2841,00,97,38
2840,00,97,47
2839,00,97,56
2838,00,97,64
2837,00,97,72
2836,00,97,78
2835,00,97,83
2834,00,97,88
2833,00,97,92
2832,00,97,96
2831,00,98,00
2830,00,98,03
2829,00,98,06
2828,00,98,08
2827,00,98,11
2826,00,98,13
2825,00,98,15
2824,00,98,16
2823,00,98,18
2822,00,98,21
2821,00,98,23
2820,00,98,24
2819,00,98,27
2818,00,98,29
2817,00,98,31
2816,00,98,32
2815,00,98,33
2814,00,98,33
2813,00,98,34
2812,00,98,35
2811,00,98,37
2810,00,98,38
2809,00,98,38
2808,00,98,39
2807,00,98,40
2806,00,98,42
2805,00,98,43
2804,00,98,44
2803,00,98,46
2802,00,98,47
2801,00,98,49
2800,00,98,50
2799,00,98,50
2798,00,98,50
2797,00,98,50
2796,00,98,51
2795,00,98,52
2794,00,98,53
2793,00,98,53
2792,00,98,53
2791,00,98,53
2790,00,98,52
2789,00,98,52
2788,00,98,52
2787,00,98,52
2786,00,98,53
2785,00,98,54
2784,00,98,53
2783,00,98,53
2782,00,98,52
2781,00,98,52
2780,00,98,53
2779,00,98,53
2778,00,98,53
2777,00,98,53
2776,00,98,53
2775,00,98,54
2774,00,98,55
2773,00,98,55
2772,00,98,55
2771,00,98,55
2770,00,98,55
2769,00,98,54
2768,00,98,54
2767,00,98,54
2766,00,98,53
2765,00,98,52
2764,00,98,52
2763,00,98,52
2762,00,98,53
2761,00,98,54
2760,00,98,55
2759,00,98,55
2758,00,98,54
2757,00,98,52
2756,00,98,51
2755,00,98,51
2754,00,98,51
2753,00,98,51
2752,00,98,50
2751,00,98,50
2750,00,98,52
2749,00,98,53
2748,00,98,53
2747,00,98,53
2746,00,98,52
2745,00,98,51
2744,00,98,50
2743,00,98,50
2742,00,98,51
2741,00,98,51
2740,00,98,51
2739,00,98,51
2738,00,98,51
2737,00,98,51
2736,00,98,51
2735,00,98,51
2734,00,98,50
2733,00,98,49
2732,00,98,48
2731,00,98,48
2730,00,98,48
2729,00,98,48
2728,00,98,49
2727,00,98,50
2726,00,98,51
2725,00,98,51
2724,00,98,51
2723,00,98,51
2722,00,98,52
2721,00,98,53
2720,00,98,54
2719,00,98,55
2718,00,98,55
2717,00,98,55
2716,00,98,55
2715,00,98,56
2714,00,98,57
2713,00,98,58
2712,00,98,58
2711,00,98,58
2710,00,98,58
2709,00,98,57
2708,00,98,56
2707,00,98,56
2706,00,98,56
2705,00,98,57
2704,00,98,57
2703,00,98,57
2702,00,98,57
2701,00,98,57
2700,00,98,57
2699,00,98,57
2698,00,98,58
2697,00,98,58
2696,00,98,58
2695,00,98,58
2694,00,98,59
2693,00,98,60
2692,00,98,60
2691,00,98,61
2690,00,98,61
2689,00,98,61
2688,00,98,61
2687,00,98,62
2686,00,98,63
2685,00,98,64
2684,00,98,65
2683,00,98,65
2682,00,98,65
2681,00,98,65
2680,00,98,65
2679,00,98,66
2678,00,98,66
2677,00,98,66
2676,00,98,66
2675,00,98,66
2674,00,98,67
2673,00,98,67
2672,00,98,68
2671,00,98,69
2670,00,98,69
2669,00,98,69
2668,00,98,70
2667,00,98,71
2666,00,98,72
2665,00,98,71
2664,00,98,71
2663,00,98,70
2662,00,98,69
2661,00,98,68
2660,00,98,68
2659,00,98,68
2658,00,98,67
2657,00,98,67
2656,00,98,65
2655,00,98,65
2654,00,98,65
2653,00,98,65
2652,00,98,64
2651,00,98,64
2650,00,98,64
2649,00,98,63
2648,00,98,63
2647,00,98,63
2646,00,98,64
2645,00,98,64
2644,00,98,64
2643,00,98,64
2642,00,98,64
2641,00,98,63
2640,00,98,63
2639,00,98,63
2638,00,98,62
2637,00,98,61
2636,00,98,60
2635,00,98,59
2634,00,98,59
2633,00,98,60
2632,00,98,61
2631,00,98,62
2630,00,98,61
2629,00,98,60
2628,00,98,58
2627,00,98,57
2626,00,98,56
2625,00,98,56
2624,00,98,55
2623,00,98,54
2622,00,98,54
2621,00,98,54
2620,00,98,52
2619,00,98,51
2618,00,98,49
2617,00,98,48
2616,00,98,48
2615,00,98,49
2614,00,98,50
2613,00,98,50
2612,00,98,51
2611,00,98,50
2610,00,98,50
2609,00,98,51
2608,00,98,52
2607,00,98,53
2606,00,98,53
2605,00,98,53
2604,00,98,52
2603,00,98,52
2602,00,98,53
2601,00,98,53
2600,00,98,53
2599,00,98,52
2598,00,98,50
2597,00,98,49
2596,00,98,49
2595,00,98,49
2594,00,98,48
2593,00,98,47
2592,00,98,46
2591,00,98,45
2590,00,98,46
2589,00,98,46
2588,00,98,46
2587,00,98,47
2586,00,98,48
2585,00,98,48
2584,00,98,49
2583,00,98,48
2582,00,98,48
2581,00,98,47
2580,00,98,47
2579,00,98,47
2578,00,98,46
2577,00,98,45
2576,00,98,45
2575,00,98,46
2574,00,98,47
2573,00,98,48
2572,00,98,48
2571,00,98,48
2570,00,98,47
2569,00,98,46
2568,00,98,44
2567,00,98,43
2566,00,98,43
2565,00,98,44
2564,00,98,44
2563,00,98,43
2562,00,98,43
2561,00,98,42
2560,00,98,41
2559,00,98,40
2558,00,98,40
2557,00,98,41
2556,00,98,43
2555,00,98,44
2554,00,98,45
2553,00,98,44
2552,00,98,43
2551,00,98,43
2550,00,98,44
2549,00,98,44
2548,00,98,45
2547,00,98,46
2546,00,98,47
2545,00,98,47
2544,00,98,47
2543,00,98,46
2542,00,98,45
2541,00,98,45
2540,00,98,45
2539,00,98,46
2538,00,98,45
2537,00,98,45
2536,00,98,45
2535,00,98,45
2534,00,98,45
2533,00,98,45
2532,00,98,44
2531,00,98,45
2530,00,98,46
2529,00,98,47
2528,00,98,46
2527,00,98,45
2526,00,98,45
2525,00,98,45
2524,00,98,45
2523,00,98,44
2522,00,98,44
2521,00,98,45
2520,00,98,45
2519,00,98,46
2518,00,98,46
2517,00,98,46
2516,00,98,47
2515,00,98,49
2514,00,98,51
2513,00,98,52
2512,00,98,53
2511,00,98,54
2510,00,98,55
2509,00,98,55
2508,00,98,54
2507,00,98,55
2506,00,98,56
2505,00,98,57
2504,00,98,58
2503,00,98,59
2502,00,98,59
2501,00,98,59
2500,00,98,59
2499,00,98,59
2498,00,98,59
2497,00,98,58
2496,00,98,57
2495,00,98,56
2494,00,98,56
2493,00,98,56
2492,00,98,57
2491,00,98,57
2490,00,98,58
2489,00,98,59
2488,00,98,58
2487,00,98,58
2486,00,98,58
2485,00,98,58
2484,00,98,58
2483,00,98,58
2482,00,98,59
2481,00,98,59
2480,00,98,59
2479,00,98,58
2478,00,98,57
2477,00,98,57
2476,00,98,57
2475,00,98,58
2474,00,98,59
2473,00,98,59
2472,00,98,58
2471,00,98,58
2470,00,98,58
2469,00,98,57
2468,00,98,56
2467,00,98,55
2466,00,98,56
2465,00,98,56
2464,00,98,56
2463,00,98,56
2462,00,98,56
2461,00,98,56
2460,00,98,55
2459,00,98,54
2458,00,98,54
2457,00,98,54
2456,00,98,54
2455,00,98,54
2454,00,98,54
2453,00,98,54
2452,00,98,54
2451,00,98,54
2450,00,98,54
2449,00,98,55
2448,00,98,55
2447,00,98,55
2446,00,98,55
2445,00,98,55
2444,00,98,55
2443,00,98,55
2442,00,98,55
2441,00,98,55
2440,00,98,54
2439,00,98,54
2438,00,98,53
2437,00,98,53
2436,00,98,53
2435,00,98,53
2434,00,98,53
2433,00,98,52
2432,00,98,51
2431,00,98,51
2430,00,98,50
2429,00,98,50
2428,00,98,49
2427,00,98,50
2426,00,98,51
2425,00,98,52
2424,00,98,53
2423,00,98,54
2422,00,98,54
2421,00,98,55
2420,00,98,55
2419,00,98,55
2418,00,98,56
2417,00,98,55
2416,00,98,55
2415,00,98,54
2414,00,98,54
2413,00,98,54
2412,00,98,54
2411,00,98,55
2410,00,98,56
2409,00,98,56
2408,00,98,57
2407,00,98,58
2406,00,98,59
2405,00,98,60
2404,00,98,61
2403,00,98,62
2402,00,98,64
2401,00,98,66
2400,00,98,66
2399,00,98,64
2398,00,98,63
2397,00,98,62
2396,00,98,62
2395,00,98,62
2394,00,98,62
2393,00,98,63
2392,00,98,63
2391,00,98,63
2390,00,98,63
2389,00,98,63
2388,00,98,63
2387,00,98,64
2386,00,98,66
2385,00,98,69
2384,00,98,72
2383,00,98,75
2382,00,98,77
2381,00,98,77
2380,00,98,76
2379,00,98,74
2378,00,98,72
2377,00,98,70
2376,00,98,69
2375,00,98,70
2374,00,98,72
2373,00,98,74
2372,00,98,75
2371,00,98,77
2370,00,98,80
2369,00,98,81
2368,00,98,80
2367,00,98,80
2366,00,98,79
2365,00,98,78
2364,00,98,77
2363,00,98,77
2362,00,98,75
2361,00,98,73
2360,00,98,72
2359,00,98,75
2358,00,98,79
2357,00,98,81
2356,00,98,80
2355,00,98,77
2354,00,98,76
2353,00,98,76
2352,00,98,76
2351,00,98,76
2350,00,98,75
2349,00,98,73
2348,00,98,71
2347,00,98,70
2346,00,98,71
2345,00,98,73
2344,00,98,74
2343,00,98,74
2342,00,98,72
2341,00,98,68
2340,00,98,64
2339,00,98,63
2338,00,98,63
2337,00,98,63
2336,00,98,62
2335,00,98,63
2334,00,98,65
2333,00,98,64
2332,00,98,62
2331,00,98,61
2330,00,98,63
2329,00,98,65
2328,00,98,65
2327,00,98,63
2326,00,98,58
2325,00,98,53
2324,00,98,49
2323,00,98,48
2322,00,98,48
2321,00,98,48
2320,00,98,46
2319,00,98,44
2318,00,98,44
2317,00,98,44
2316,00,98,43
2315,00,98,42
2314,00,98,41
2313,00,98,40
2312,00,98,38
2311,00,98,37
2310,00,98,35
2309,00,98,33
2308,00,98,30
2307,00,98,25
2306,00,98,20
2305,00,98,16
2304,00,98,14
2303,00,98,13
2302,00,98,12
2301,00,98,10
2300,00,98,06
2299,00,98,01
2298,00,97,95
2297,00,97,89
2296,00,97,84
2295,00,97,80
2294,00,97,75
2293,00,97,67
2292,00,97,60
2291,00,97,53
2290,00,97,46
2289,00,97,40
2288,00,97,33
2287,00,97,27
2286,00,97,20
2285,00,97,14
2284,00,97,08
2283,00,97,02
2282,00,96,96
2281,00,96,89
2280,00,96,81
2279,00,96,72
2278,00,96,62
2277,00,96,52
2276,00,96,42
2275,00,96,33
2274,00,96,23
2273,00,96,11
2272,00,95,98
2271,00,95,86
2270,00,95,74
2269,00,95,60
2268,00,95,45
2267,00,95,29
2266,00,95,14
2265,00,94,99
2264,00,94,82
2263,00,94,66
2262,00,94,49
2261,00,94,31
2260,00,94,11
2259,00,93,90
2258,00,93,68
2257,00,93,49
2256,00,93,32
2255,00,93,17
2254,00,93,01
2253,00,92,83
2252,00,92,63
2251,00,92,44
2250,00,92,26
2249,00,92,10
2248,00,91,94
2247,00,91,78
2246,00,91,65
2245,00,91,52
2244,00,91,40
2243,00,91,28
2242,00,91,16
2241,00,91,04
2240,00,90,94
2239,00,90,85
2238,00,90,76
2237,00,90,68
2236,00,90,59
2235,00,90,50
2234,00,90,39
2233,00,90,29
2232,00,90,20
2231,00,90,11
2230,00,90,02
2229,00,89,91
2228,00,89,80
2227,00,89,68
2226,00,89,56
2225,00,89,43
2224,00,89,28
2223,00,89,09
2222,00,88,89
2221,00,88,69
2220,00,88,49
2219,00,88,30
2218,00,88,08
2217,00,87,85
2216,00,87,58
2215,00,87,29
2214,00,86,97
2213,00,86,67
2212,00,86,38
2211,00,86,06
2210,00,85,71
2209,00,85,35
2208,00,85,00
2207,00,84,63
2206,00,84,21
2205,00,83,79
2204,00,83,37
2203,00,82,97
2202,00,82,58
2201,00,82,18
2200,00,81,77
2199,00,81,33
2198,00,80,88
2197,00,80,46
2196,00,80,05
2195,00,79,63
2194,00,79,19
2193,00,78,77
2192,00,78,37
2191,00,77,98
2190,00,77,58
2189,00,77,21
2188,00,76,88
2187,00,76,55
2186,00,76,23
2185,00,75,95
2184,00,75,73
2183,00,75,53
2182,00,75,32
2181,00,75,14
2180,00,74,98
2179,00,74,81
2178,00,74,66
2177,00,74,60
2176,00,74,61
2175,00,74,63
2174,00,74,63
2173,00,74,69
2172,00,74,81
2171,00,74,95
2170,00,75,10
2169,00,75,28
2168,00,75,51
2167,00,75,75
2166,00,76,04
2165,00,76,40
2164,00,76,82
2163,00,77,23
2162,00,77,62
2161,00,78,09
2160,00,78,64
2159,00,79,23
2158,00,79,83
2157,00,80,46
2156,00,81,09
2155,00,81,72
2154,00,82,34
2153,00,82,98
2152,00,83,62
2151,00,84,25
2150,00,84,89
2149,00,85,58
2148,00,86,29
2147,00,86,97
2146,00,87,59
2145,00,88,17
2144,00,88,76
2143,00,89,35
2142,00,89,95
2141,00,90,53
2140,00,91,07
2139,00,91,56
2138,00,92,00
2137,00,92,42
2136,00,92,83
2135,00,93,22
2134,00,93,58
2133,00,93,91
2132,00,94,21
2131,00,94,47
2130,00,94,71
2129,00,94,92
2128,00,95,11
2127,00,95,30
2126,00,95,48
2125,00,95,65
2124,00,95,79
2123,00,95,90
2122,00,95,99
2121,00,96,08
2120,00,96,17
2119,00,96,28
2118,00,96,39
2117,00,96,49
2116,00,96,57
2115,00,96,65
2114,00,96,72
2113,00,96,76
2112,00,96,79
2111,00,96,83
2110,00,96,89
2109,00,96,97
2108,00,97,04
2107,00,97,10
2106,00,97,14
2105,00,97,19
2104,00,97,23
2103,00,97,28
2102,00,97,31
2101,00,97,34
2100,00,97,38
2099,00,97,43
2098,00,97,48
2097,00,97,51
2096,00,97,54
2095,00,97,57
2094,00,97,60
2093,00,97,61
2092,00,97,62
2091,00,97,64
2090,00,97,67
2089,00,97,69
2088,00,97,70
2087,00,97,71
2086,00,97,71
2085,00,97,71
2084,00,97,72
2083,00,97,74
2082,00,97,75
2081,00,97,74
2080,00,97,73
2079,00,97,74
2078,00,97,76
2077,00,97,77
2076,00,97,80
2075,00,97,85
2074,00,97,89
2073,00,97,88
2072,00,97,85
2071,00,97,84
2070,00,97,86
2069,00,97,88
2068,00,97,88
2067,00,97,88
2066,00,97,88
2065,00,97,89
2064,00,97,90
2063,00,97,92
2062,00,97,92
2061,00,97,91
2060,00,97,90
2059,00,97,91
2058,00,97,93
2057,00,97,93
2056,00,97,93
2055,00,97,95
2054,00,97,98
2053,00,97,97
2052,00,97,94
2051,00,97,91
2050,00,97,91
2049,00,97,94
2048,00,97,98
2047,00,98,03
2046,00,98,07
2045,00,98,07
2044,00,98,05
2043,00,98,04
2042,00,98,03
2041,00,98,01
2040,00,97,98
2039,00,97,97
2038,00,98,01
2037,00,98,04
2036,00,98,05
2035,00,98,07
2034,00,98,11
2033,00,98,16
2032,00,98,18
2031,00,98,18
2030,00,98,17
2029,00,98,15
2028,00,98,12
2027,00,98,09
2026,00,98,08
2025,00,98,09
2024,00,98,14
2023,00,98,20
2022,00,98,22
2021,00,98,21
2020,00,98,18
2019,00,98,19
2018,00,98,20
2017,00,98,19
2016,00,98,18
2015,00,98,21
2014,00,98,25
2013,00,98,26
2012,00,98,25
2011,00,98,25
2010,00,98,27
2009,00,98,26
2008,00,98,26
2007,00,98,30
2006,00,98,36
2005,00,98,38
2004,00,98,36
2003,00,98,35
2002,00,98,37
2001,00,98,38
2000,00,98,37
1999,00,98,34
1998,00,98,31
1997,00,98,26
1996,00,98,22
1995,00,98,21
1994,00,98,22
1993,00,98,22
1992,00,98,23
1991,00,98,27
1990,00,98,32
1989,00,98,32
1988,00,98,25
1987,00,98,18
1986,00,98,16
1985,00,98,17
1984,00,98,17
1983,00,98,16
1982,00,98,15
1981,00,98,13
1980,00,98,09
1979,00,98,10
1978,00,98,19
1977,00,98,31
1976,00,98,40
1975,00,98,44
1974,00,98,42
1973,00,98,37
1972,00,98,31
1971,00,98,30
1970,00,98,34
1969,00,98,39
1968,00,98,41
1967,00,98,41
1966,00,98,43
1965,00,98,44
1964,00,98,43
1963,00,98,41
1962,00,98,39
1961,00,98,40
1960,00,98,44
1959,00,98,50
1958,00,98,53
1957,00,98,51
1956,00,98,45
1955,00,98,40
1954,00,98,40
1953,00,98,43
1952,00,98,46
1951,00,98,49
1950,00,98,49
1949,00,98,49
1948,00,98,48
1947,00,98,47
1946,00,98,46
1945,00,98,43
1944,00,98,40
1943,00,98,39
1942,00,98,38
1941,00,98,39
1940,00,98,40
1939,00,98,42
1938,00,98,43
1937,00,98,44
1936,00,98,47
1935,00,98,50
1934,00,98,51
1933,00,98,50
1932,00,98,47
1931,00,98,46
1930,00,98,47
1929,00,98,46
1928,00,98,44
1927,00,98,43
1926,00,98,42
1925,00,98,41
1924,00,98,40
1923,00,98,41
1922,00,98,42
1921,00,98,42
1920,00,98,42
1919,00,98,41
1918,00,98,41
1917,00,98,40
1916,00,98,39
1915,00,98,41
1914,00,98,42
1913,00,98,41
1912,00,98,39
1911,00,98,38
1910,00,98,36
1909,00,98,33
1908,00,98,32
1907,00,98,34
1906,00,98,37
1905,00,98,36
1904,00,98,33
1903,00,98,31
1902,00,98,32
1901,00,98,32
1900,00,98,30
1899,00,98,27
1898,00,98,25
1897,00,98,22
1896,00,98,19
1895,00,98,18
1894,00,98,19
1893,00,98,20
1892,00,98,20
1891,00,98,20
1890,00,98,21
1889,00,98,21
1888,00,98,20
1887,00,98,20
1886,00,98,21
1885,00,98,20
1884,00,98,19
1883,00,98,20
1882,00,98,22
1881,00,98,23
1880,00,98,24
1879,00,98,27
1878,00,98,29
1877,00,98,30
1876,00,98,29
1875,00,98,29
1874,00,98,30
1873,00,98,30
1872,00,98,29
1871,00,98,30
1870,00,98,31
1869,00,98,31
1868,00,98,30
1867,00,98,30
1866,00,98,32
1865,00,98,34
1864,00,98,35
1863,00,98,35
1862,00,98,36
1861,00,98,35
1860,00,98,33
1859,00,98,33
1858,00,98,35
1857,00,98,36
1856,00,98,35
1855,00,98,34
1854,00,98,34
1853,00,98,34
1852,00,98,34
1851,00,98,34
1850,00,98,35
1849,00,98,36
1848,00,98,36
1847,00,98,37
1846,00,98,37
1845,00,98,35
1844,00,98,33
1843,00,98,31
1842,00,98,32
1841,00,98,32
1840,00,98,32
1839,00,98,32
1838,00,98,32
1837,00,98,30
1836,00,98,29
1835,00,98,29
1834,00,98,29
1833,00,98,28
1832,00,98,27
1831,00,98,26
1830,00,98,26
1829,00,98,27
1828,00,98,28
1827,00,98,29
1826,00,98,29
1825,00,98,27
1824,00,98,24
1823,00,98,23
1822,00,98,23
1821,00,98,22
1820,00,98,22
1819,00,98,22
1818,00,98,25
1817,00,98,26
1816,00,98,25
1815,00,98,24
1814,00,98,23
1813,00,98,23
1812,00,98,21
1811,00,98,20
1810,00,98,20
1809,00,98,20
1808,00,98,19
1807,00,98,19
1806,00,98,20
1805,00,98,20
1804,00,98,18
1803,00,98,15
1802,00,98,15
1801,00,98,16
1800,00,98,16
1799,00,98,17
1798,00,98,17
1797,00,98,16
1796,00,98,13
1795,00,98,11
1794,00,98,12
1793,00,98,13
1792,00,98,13
1791,00,98,12
1790,00,98,12
1789,00,98,12
1788,00,98,11
1787,00,98,12
1786,00,98,13
1785,00,98,13
1784,00,98,13
1783,00,98,12
1782,00,98,12
1781,00,98,13
1780,00,98,12
1779,00,98,13
1778,00,98,13
1777,00,98,12
1776,00,98,11
1775,00,98,09
1774,00,98,08
1773,00,98,08
1772,00,98,08
1771,00,98,08
1770,00,98,07
1769,00,98,06
1768,00,98,05
1767,00,98,04
1766,00,98,04
1765,00,98,03
1764,00,98,01
1763,00,98,00
1762,00,97,99
1761,00,98,00
1760,00,98,01
1759,00,98,02
1758,00,98,01
1757,00,98,01
1756,00,98,02
1755,00,98,02
1754,00,98,02
1753,00,98,03
1752,00,98,05
1751,00,98,04
1750,00,98,02
1749,00,98,01
1748,00,98,01
1747,00,98,00
1746,00,97,99
1745,00,97,99
1744,00,97,99
1743,00,97,98
1742,00,97,97
1741,00,97,97
1740,00,97,97
1739,00,97,96
1738,00,97,94
1737,00,97,93
1736,00,97,93
1735,00,97,95
1734,00,97,96
1733,00,97,96
1732,00,97,95
1731,00,97,94
1730,00,97,92
1729,00,97,91
1728,00,97,92
1727,00,97,92
1726,00,97,91
1725,00,97,91
1724,00,97,90
1723,00,97,90
1722,00,97,92
1721,00,97,93
1720,00,97,93
1719,00,97,93
1718,00,97,94
1717,00,97,94
1716,00,97,91
1715,00,97,91
1714,00,97,91
1713,00,97,90
1712,00,97,88
1711,00,97,88
1710,00,97,89
1709,00,97,90
1708,00,97,90
1707,00,97,90
1706,00,97,91
1705,00,97,89
1704,00,97,87
1703,00,97,85
1702,00,97,86
1701,00,97,89
1700,00,97,88
1699,00,97,89
1698,00,97,93
1697,00,97,93
1696,00,97,90
1695,00,97,90
1694,00,97,93
1693,00,97,94
1692,00,97,94
1691,00,97,94
1690,00,97,94
1689,00,97,93
1688,00,97,91
1687,00,97,89
1686,00,97,89
1685,00,97,90
1684,00,97,90
1683,00,97,91
1682,00,97,91
1681,00,97,90
1680,00,97,89
1679,00,97,90
1678,00,97,89
1677,00,97,89
1676,00,97,90
1675,00,97,90
1674,00,97,89
1673,00,97,89
1672,00,97,90
1671,00,97,92
1670,00,97,92
1669,00,97,92
1668,00,97,92
1667,00,97,93
1666,00,97,92
1665,00,97,92
1664,00,97,94
1663,00,97,97
1662,00,97,98
1661,00,97,98
1660,00,97,99
1659,00,98,00
1658,00,98,00
1657,00,97,99
1656,00,97,99
1655,00,97,99
1654,00,98,00
1653,00,97,99
1652,00,98,02
1651,00,98,05
1650,00,98,07
1649,00,98,05
1648,00,98,04
1647,00,98,03
1646,00,98,04
1645,00,98,04
1644,00,98,04
1643,00,98,05
1642,00,98,06
1641,00,98,06
1640,00,98,06
1639,00,98,07
1638,00,98,07
1637,00,98,07
1636,00,98,07
1635,00,98,07
1634,00,98,06
1633,00,98,02
1632,00,97,99
1631,00,97,98
1630,00,97,96
1629,00,97,92
1628,00,97,86
1627,00,97,81
1626,00,97,74
1625,00,97,64
1624,00,97,52
1623,00,97,38
1622,00,97,21
1621,00,97,01
1620,00,96,79
1619,00,96,54
1618,00,96,19
1617,00,95,65
1616,00,94,98
1615,00,94,29
1614,00,93,59
1613,00,92,77
1612,00,91,84
1611,00,90,85
1610,00,89,90
1609,00,89,06
1608,00,88,44
1607,00,88,18
1606,00,88,36
1605,00,88,87
1604,00,89,63
1603,00,90,52
1602,00,91,45
1601,00,92,29
1600,00,93,01
1599,00,93,61
1598,00,94,11
1597,00,94,51
1596,00,94,85
1595,00,95,14
1594,00,95,40
1593,00,95,64
1592,00,95,86
1591,00,96,08
1590,00,96,28
1589,00,96,47
1588,00,96,64
1587,00,96,79
1586,00,96,90
1585,00,96,96
1584,00,97,00
1583,00,97,03
1582,00,97,02
1581,00,96,97
1580,00,96,92
1579,00,96,86
1578,00,96,77
1577,00,96,63
1576,00,96,47
1575,00,96,35
1574,00,96,26
1573,00,96,19
1572,00,96,17
1571,00,96,22
1570,00,96,33
1569,00,96,48
1568,00,96,63
1567,00,96,78
1566,00,96,91
1565,00,97,04
1564,00,97,15
1563,00,97,23
1562,00,97,27
1561,00,97,31
1560,00,97,46
1559,00,97,63
1558,00,97,69
1557,00,97,70
1556,00,97,70
1555,00,97,72
1554,00,97,76
1553,00,97,80
1552,00,97,84
1551,00,97,85
1550,00,97,85
1549,00,97,84
1548,00,97,83
1547,00,97,83
1546,00,97,81
1545,00,97,75
1544,00,97,67
1543,00,97,58
1542,00,97,47
1541,00,97,24
1540,00,96,81
1539,00,96,20
1538,00,95,54
1537,00,94,89
1536,00,94,24
1535,00,93,58
1534,00,93,03
1533,00,92,81
1532,00,92,98
1531,00,93,39
1530,00,93,95
1529,00,94,54
1528,00,95,05
1527,00,95,47
1526,00,95,83
1525,00,96,11
1524,00,96,28
1523,00,96,40
1522,00,96,55
1521,00,96,69
1520,00,96,79
1519,00,96,84
1518,00,96,88
1517,00,96,87
1516,00,96,79
1515,00,96,68
1514,00,96,56
1513,00,96,44
1512,00,96,28
1511,00,96,12
1510,00,95,99
1509,00,95,85
1508,00,95,57
1507,00,94,97
1506,00,94,10
1505,00,93,05
1504,00,91,75
1503,00,90,04
1502,00,87,85
1501,00,85,39
1500,00,83,21
1499,00,81,83
1498,00,81,57
1497,00,82,58
1496,00,84,59
1495,00,86,85
1494,00,88,79
1493,00,90,38
1492,00,91,79
1491,00,93,07
1490,00,94,12
1489,00,94,83
1488,00,95,28
1487,00,95,60
1486,00,95,78
1485,00,95,82
1484,00,95,75
1483,00,95,61
1482,00,95,38
1481,00,95,04
1480,00,94,64
1479,00,94,25
1478,00,93,88
1477,00,93,52
1476,00,93,23
1475,00,93,07
1474,00,92,94
1473,00,92,67
1472,00,92,20
1471,00,91,67
1470,00,91,18
1469,00,90,75
1468,00,90,46
1467,00,90,39
1466,00,90,55
1465,00,90,91
1464,00,91,32
1463,00,91,63
1462,00,91,84
1461,00,92,03
1460,00,92,27
1459,00,92,56
1458,00,92,90
1457,00,93,32
1456,00,93,74
1455,00,94,07
1454,00,94,35
1453,00,94,64
1452,00,94,95
1451,00,95,23
1450,00,95,46
1449,00,95,67
1448,00,95,85
1447,00,95,99
1446,00,96,11
1445,00,96,25
1444,00,96,40
1443,00,96,52
1442,00,96,64
1441,00,96,75
1440,00,96,85
1439,00,96,89
1438,00,96,92
1437,00,96,96
1436,00,97,01
1435,00,97,03
1434,00,97,04
1433,00,97,09
1432,00,97,17
1431,00,97,28
1430,00,97,41
1429,00,97,56
1428,00,97,69
1427,00,97,78
1426,00,97,84
1425,00,97,92
1424,00,98,00
1423,00,98,04
1422,00,98,05
1421,00,98,10
1420,00,98,17
1419,00,98,22
1418,00,98,23
1417,00,98,25
1416,00,98,27
1415,00,98,29
1414,00,98,33
1413,00,98,43
1412,00,98,54
1411,00,98,63
1410,00,98,70
1409,00,98,79
1408,00,98,91
1407,00,99,04
1406,00,99,20
1405,00,99,43
1404,00,99,69
1403,00,99,92
1402,00,100,13
1401,00,100,35
1400,00,100,58
1399,00,100,74
1398,00,100,83
1397,00,100,88
1396,00,100,88
1395,00,100,79
1394,00,100,63
1393,00,100,47
1392,00,100,32
1391,00,100,20
1390,00,100,15
1389,00,100,23
1388,00,100,41
1387,00,100,59
1386,00,100,71
1385,00,100,77
1384,00,100,80
1383,00,100,77
1382,00,100,65
1381,00,100,48
1380,00,100,27
1379,00,100,07
1378,00,99,93
1377,00,99,90
1376,00,99,96
1375,00,100,04
1374,00,100,09
1373,00,100,08
1372,00,100,01
1371,00,99,90
1370,00,99,77
1369,00,99,66
1368,00,99,60
1367,00,99,56
1366,00,99,53
1365,00,99,48
1364,00,99,41
1363,00,99,32
1362,00,99,20
1361,00,99,09
1360,00,98,96
1359,00,98,80
1358,00,98,63
1357,00,98,45
1356,00,98,28
1355,00,98,10
1354,00,97,93
1353,00,97,79
1352,00,97,68
1351,00,97,58
1350,00,97,50
1349,00,97,44
1348,00,97,37
1347,00,97,29
1346,00,97,19
1345,00,97,13
1344,00,97,11
1343,00,97,15
1342,00,97,23
1341,00,97,34
1340,00,97,46
1339,00,97,57
1338,00,97,65
1337,00,97,70
1336,00,97,72
1335,00,97,70
1334,00,97,64
1333,00,97,54
1332,00,97,39
1331,00,97,19
1330,00,96,94
1329,00,96,68
1328,00,96,40
1327,00,96,12
1326,00,95,85
1325,00,95,60
1324,00,95,35
1323,00,95,10
1322,00,94,87
1321,00,94,68
1320,00,94,56
1319,00,94,51
1318,00,94,55
1317,00,94,63
1316,00,94,71
1315,00,94,76
1314,00,94,79
1313,00,94,79
1312,00,94,80
1311,00,94,80
1310,00,94,81
1309,00,94,82
1308,00,94,86
1307,00,94,92
1306,00,95,02
1305,00,95,15
1304,00,95,29
1303,00,95,44
1302,00,95,59
1301,00,95,73
1300,00,95,85
1299,00,95,96
1298,00,96,04
1297,00,96,10
1296,00,96,14
1295,00,96,15
1294,00,96,12
1293,00,96,05
1292,00,95,93
1291,00,95,77
1290,00,95,54
1289,00,95,23
1288,00,94,86
1287,00,94,40
1286,00,93,87
1285,00,93,29
1284,00,92,69
1283,00,92,12
1282,00,91,63
1281,00,91,26
1280,00,90,99
1279,00,90,83
1278,00,90,77
1277,00,90,82
1276,00,90,97
1275,00,91,21
1274,00,91,57
1273,00,92,02
1272,00,92,54
1271,00,93,09
1270,00,93,62
1269,00,94,11
1268,00,94,54
1267,00,94,87
1266,00,95,09
1265,00,95,17
1264,00,95,11
1263,00,94,88
1262,00,94,49
1261,00,93,95
1260,00,93,31
1259,00,92,60
1258,00,91,89
1257,00,91,23
1256,00,90,64
1255,00,90,13
1254,00,89,69
1253,00,89,30
1252,00,88,93
1251,00,88,57
1250,00,88,22
1249,00,87,90
1248,00,87,64
1247,00,87,48
1246,00,87,47
1245,00,87,60
1244,00,87,88
1243,00,88,29
1242,00,88,81
1241,00,89,37
1240,00,89,94
1239,00,90,48
1238,00,90,98
1237,00,91,41
1236,00,91,77
1235,00,92,04
1234,00,92,24
1233,00,92,38
1232,00,92,46
1231,00,92,50
1230,00,92,52
1229,00,92,52
1228,00,92,49
1227,00,92,47
1226,00,92,46
1225,00,92,47
1224,00,92,47
1223,00,92,48
1222,00,92,48
1221,00,92,47
1220,00,92,43
1219,00,92,36
1218,00,92,26
1217,00,92,12
1216,00,91,96
1215,00,91,77
1214,00,91,57
1213,00,91,36
1212,00,91,13
1211,00,90,89
1210,00,90,68
1209,00,90,50
1208,00,90,36
1207,00,90,27
1206,00,90,22
1205,00,90,21
1204,00,90,21
1203,00,90,18
1202,00,90,13
1201,00,90,05
1200,00,89,95
1199,00,89,83
1198,00,89,70
1197,00,89,53
1196,00,89,31
1195,00,89,03
1194,00,88,66
1193,00,88,17
1192,00,87,55
1191,00,86,81
1190,00,86,04
1189,00,85,29
1188,00,84,63
1187,00,84,08
1186,00,83,64
1185,00,83,29
1184,00,83,03
1183,00,82,88
1182,00,82,87
1181,00,82,96
1180,00,83,15
1179,00,83,41
1178,00,83,72
1177,00,84,01
1176,00,84,25
1175,00,84,45
1174,00,84,61
1173,00,84,74
1172,00,84,84
1171,00,84,90
1170,00,84,93
1169,00,84,92
1168,00,84,85
1167,00,84,77
1166,00,84,69
1165,00,84,59
1164,00,84,44
1163,00,84,25
1162,00,84,04
1161,00,83,82
1160,00,83,61
1159,00,83,40
1158,00,83,20
1157,00,82,97
1156,00,82,72
1155,00,82,46
1154,00,82,20
1153,00,81,91
1152,00,81,59
1151,00,81,27
1150,00,80,95
1149,00,80,60
1148,00,80,21
1147,00,79,81
1146,00,79,41
1145,00,79,00
1144,00,78,56
1143,00,78,14
1142,00,77,73
1141,00,77,31
1140,00,76,87
1139,00,76,42
1138,00,75,97
1137,00,75,50
1136,00,75,04
1135,00,74,63
1134,00,74,28
1133,00,73,97
1132,00,73,65
1131,00,73,32
1130,00,72,98
1129,00,72,60
1128,00,72,18
1127,00,71,77
1126,00,71,35
1125,00,70,90
1124,00,70,41
1123,00,69,91
1122,00,69,43
1121,00,68,95
1120,00,68,47
1119,00,68,05
1118,00,67,69
1117,00,67,34
1116,00,66,99
1115,00,66,68
1114,00,66,39
1113,00,66,08
1112,00,65,73
1111,00,65,40
1110,00,65,11
1109,00,64,82
1108,00,64,53
1107,00,64,26
1106,00,64,03
1105,00,63,78
1104,00,63,52
1103,00,63,28
1102,00,63,08
1101,00,62,87
1100,00,62,64
1099,00,62,44
1098,00,62,27
1097,00,62,10
1096,00,61,90
1095,00,61,71
1094,00,61,54
1093,00,61,36
1092,00,61,15
1091,00,60,95
1090,00,60,77
1089,00,60,55
1088,00,60,27
1087,00,60,01
1086,00,59,76
1085,00,59,48
1084,00,59,16
1083,00,58,86
1082,00,58,60
1081,00,58,29
1080,00,57,95
1079,00,57,64
1078,00,57,38
1077,00,57,09
1076,00,56,76
1075,00,56,48
1074,00,56,24
1073,00,55,98
1072,00,55,65
1071,00,55,35
1070,00,55,09
1069,00,54,82
1068,00,54,52
1067,00,54,26
1066,00,54,05
1065,00,53,86
1064,00,53,68
1063,00,53,57
1062,00,53,56
1061,00,53,56
1060,00,53,55
1059,00,53,61
1058,00,53,75
1057,00,53,91
1056,00,54,05
1055,00,54,25
1054,00,54,53
1053,00,54,85
1052,00,55,17
1051,00,55,56
1050,00,56,04
1049,00,56,55
1048,00,57,08
1047,00,57,67
1046,00,58,33
1045,00,59,01
1044,00,59,65
1043,00,60,32
1042,00,61,02
1041,00,61,69
1040,00,62,31
1039,00,62,93
1038,00,63,56
1037,00,64,14
1036,00,64,69
1035,00,65,23
1034,00,65,79
1033,00,66,32
1032,00,66,81
1031,00,67,29
1030,00,67,76
1029,00,68,18
1028,00,68,52
1027,00,68,81
1026,00,69,07
1025,00,69,24
1024,00,69,31
1023,00,69,33
1022,00,69,31
1021,00,69,23
1020,00,69,09
1019,00,68,92
1018,00,68,76
1017,00,68,60
1016,00,68,44
1015,00,68,33
1014,00,68,30
1013,00,68,31
1012,00,68,37
1011,00,68,51
1010,00,68,71
1009,00,68,91
1008,00,69,10
1007,00,69,32
1006,00,69,60
1005,00,69,88
1004,00,70,15
1003,00,70,43
1002,00,70,71
1001,00,70,98
1000,00,71,21
999,00,71,44
998,00,71,67
997,00,71,85
996,00,71,95
995,00,71,99
994,00,71,98
993,00,71,88
992,00,71,70
991,00,71,46
990,00,71,16
989,00,70,80
988,00,70,38
987,00,69,92
986,00,69,44
985,00,68,90
984,00,68,30
983,00,67,66
982,00,67,03
981,00,66,37
980,00,65,73
979,00,65,14
978,00,64,65
977,00,64,21
976,00,63,81
975,00,63,53
974,00,63,36
973,00,63,25
972,00,63,19
971,00,63,20
970,00,63,27
969,00,63,34
968,00,63,37
967,00,63,37
966,00,63,34
965,00,63,22
964,00,63,00
963,00,62,76
962,00,62,54
961,00,62,33
960,00,62,13
959,00,62,01
958,00,61,93
957,00,61,77
956,00,61,51
955,00,61,20
954,00,60,89
953,00,60,52
952,00,60,07
951,00,59,61
950,00,59,17
949,00,58,72
948,00,58,26
947,00,57,88
946,00,57,61
945,00,57,36
944,00,57,09
943,00,56,85
942,00,56,65
941,00,56,45
940,00,56,21
939,00,55,99
938,00,55,79
937,00,55,57
936,00,55,32
935,00,55,13
934,00,55,05
933,00,55,04
932,00,55,06
931,00,55,16
930,00,55,32
929,00,55,45
928,00,55,54
927,00,55,64
926,00,55,77
925,00,55,86
924,00,55,87
923,00,55,90
922,00,55,98
921,00,56,06
920,00,56,11
919,00,56,18
918,00,56,30
917,00,56,41
916,00,56,49
915,00,56,62
914,00,56,78
913,00,56,93
912,00,57,05
911,00,57,20
910,00,57,38
909,00,57,54
908,00,57,62
907,00,57,71
906,00,57,84
905,00,57,95
904,00,58,03
903,00,58,11
902,00,58,22
901,00,58,30
900,00,58,33
899,00,58,38
898,00,58,47
897,00,58,53
896,00,58,53
895,00,58,54
894,00,58,59
893,00,58,63
892,00,58,63
891,00,58,66
890,00,58,70
889,00,58,68
888,00,58,58
887,00,58,46
886,00,58,36
885,00,58,20
884,00,57,96
883,00,57,71
882,00,57,48
881,00,57,21
880,00,56,89
879,00,56,58
878,00,56,31
877,00,56,02
876,00,55,70
875,00,55,42
874,00,55,18
873,00,54,91
872,00,54,57
871,00,54,27
870,00,54,05
869,00,53,82
868,00,53,54
867,00,53,27
866,00,53,02
865,00,52,74
864,00,52,41
863,00,52,11
862,00,51,86
861,00,51,57
860,00,51,20
859,00,50,85
858,00,50,53
857,00,50,19
856,00,49,79
855,00,49,40
854,00,49,06
853,00,48,69
852,00,48,27
851,00,47,89
850,00,47,55
849,00,47,18
848,00,46,73
847,00,46,31
846,00,45,95
845,00,45,55
844,00,45,08
843,00,44,60
842,00,44,15
841,00,43,65
840,00,43,08
839,00,42,52
838,00,42,00
837,00,41,44
836,00,40,82
835,00,40,23
834,00,39,71
833,00,39,14
832,00,38,44
831,00,37,70
830,00,36,92
829,00,36,01
828,00,34,90
827,00,33,72
826,00,32,59
825,00,31,50
824,00,30,54
823,00,29,93
822,00,29,71
821,00,29,65
820,00,29,59
819,00,29,54
818,00,29,53
817,00,29,46
816,00,29,31
815,00,29,19
814,00,29,15
813,00,29,10
812,00,29,01
811,00,28,96
810,00,28,98
809,00,28,94
808,00,28,81
807,00,28,73
806,00,28,75
805,00,28,78
804,00,28,81
803,00,28,95
802,00,29,24
801,00,29,55
800,00,29,84
799,00,30,22
798,00,30,71
797,00,31,18
796,00,31,57
795,00,31,95
794,00,32,35
793,00,32,70
792,00,32,99
791,00,33,34
790,00,33,77
789,00,34,15
788,00,34,43
787,00,34,69
786,00,35,01
785,00,35,27
784,00,35,43
783,00,35,57
782,00,35,77
781,00,35,92
780,00,35,99
779,00,36,07
778,00,36,20
777,00,36,30
776,00,36,35
775,00,36,43
774,00,36,59
773,00,36,74
772,00,36,83
771,00,36,96
770,00,37,19
769,00,37,41
768,00,37,58
767,00,37,80
766,00,38,10
765,00,38,42
764,00,38,70
763,00,39,04
762,00,39,48
761,00,39,93
760,00,40,33
759,00,40,76
758,00,41,25
757,00,41,73
756,00,42,17
755,00,42,64
754,00,43,14
753,00,43,58
752,00,43,94
751,00,44,31
750,00,44,69
749,00,45,02
748,00,45,24
747,00,45,45
746,00,45,66
745,00,45,78
744,00,45,79
743,00,45,78
742,00,45,79
741,00,45,72
740,00,45,55
739,00,45,37
738,00,45,24
737,00,45,06
736,00,44,80
735,00,44,56
734,00,44,40
733,00,44,23
732,00,44,00
731,00,43,80
730,00,43,66
729,00,43,51
728,00,43,29
727,00,43,11
726,00,42,99
725,00,42,83
724,00,42,62
723,00,42,45
722,00,42,35
721,00,42,17
720,00,41,85
719,00,41,51
718,00,41,23
717,00,40,94
716,00,40,56
715,00,40,18
714,00,39,83
713,00,39,43
712,00,38,93
711,00,38,45
710,00,38,04
709,00,37,59
708,00,37,09
707,00,36,64
706,00,36,31
705,00,36,00
704,00,35,67
703,00,35,44
702,00,35,34
701,00,35,26
700,00,35,14
699,00,35,08
698,00,35,16
697,00,35,25
696,00,35,30
695,00,35,40
694,00,35,58
693,00,35,74
692,00,35,86
691,00,36,04
690,00,36,32
689,00,36,59
688,00,36,77
687,00,36,98
686,00,37,27
685,00,37,52
684,00,37,72
683,00,37,98
682,00,38,33
681,00,38,65
680,00,38,88
679,00,39,18
678,00,39,55
677,00,39,87
676,00,40,09
675,00,40,36
674,00,40,73
673,00,41,05
672,00,41,30
671,00,41,63
670,00,42,09
669,00,42,33
668,00,41,99
667,00,41,91
666,00,42,40
665,00,42,90
664,00,43,23
663,00,43,49
662,00,43,81
661,00,44,09
660,00,44,23
659,00,44,35
658,00,44,59
657,00,44,85
656,00,44,98
655,00,45,10
654,00,45,37
653,00,45,67
652,00,45,85
651,00,45,98
650,00,46,18
