Created as New Dataset,Sample 005 By User Date Wednesday, March 05 2025
cm-1,%T
4000,00,100,09
3999,00,100,10
3998,00,100,11
3997,00,100,11
3996,00,100,12
3995,00,100,13
3994,00,100,13
3993,00,100,13
3992,00,100,12
3991,00,100,11
3990,00,100,09
3989,00,100,09
3988,00,100,09
3987,00,100,09
3986,00,100,10
3985,00,100,11
3984,00,100,12
3983,00,100,12
3982,00,100,12
3981,00,100,11
3980,00,100,10
3979,00,100,09
3978,00,100,09
3977,00,100,10
3976,00,100,10
3975,00,100,10
3974,00,100,10
3973,00,100,11
3972,00,100,11
3971,00,100,11
3970,00,100,11
3969,00,100,11
3968,00,100,11
3967,00,100,11
3966,00,100,11
3965,00,100,11
3964,00,100,11
3963,00,100,11
3962,00,100,11
3961,00,100,11
3960,00,100,11
3959,00,100,11
3958,00,100,11
3957,00,100,12
3956,00,100,13
3955,00,100,14
3954,00,100,15
3953,00,100,15
3952,00,100,15
3951,00,100,15
3950,00,100,15
3949,00,100,15
3948,00,100,15
3947,00,100,14
3946,00,100,14
3945,00,100,13
3944,00,100,12
3943,00,100,11
3942,00,100,10
3941,00,100,09
3940,00,100,09
3939,00,100,10
3938,00,100,11
3937,00,100,12
3936,00,100,12
3935,00,100,11
3934,00,100,11
3933,00,100,11
3932,00,100,11
3931,00,100,10
3930,00,100,09
3929,00,100,08
3928,00,100,08
3927,00,100,09
3926,00,100,10
3925,00,100,10
3924,00,100,10
3923,00,100,10
3922,00,100,11
3921,00,100,12
3920,00,100,13
3919,00,100,13
3918,00,100,14
3917,00,100,14
3916,00,100,14
3915,00,100,14
3914,00,100,14
3913,00,100,13
3912,00,100,13
3911,00,100,13
3910,00,100,14
3909,00,100,14
3908,00,100,14
3907,00,100,14
3906,00,100,13
3905,00,100,12
3904,00,100,12
3903,00,100,11
3902,00,100,11
3901,00,100,10
3900,00,100,09
3899,00,100,08
3898,00,100,08
3897,00,100,09
3896,00,100,10
3895,00,100,10
3894,00,100,10
3893,00,100,10
3892,00,100,10
3891,00,100,10
3890,00,100,10
3889,00,100,10
3888,00,100,10
3887,00,100,09
3886,00,100,09
3885,00,100,09
3884,00,100,09
3883,00,100,09
3882,00,100,10
3881,00,100,11
3880,00,100,12
3879,00,100,13
3878,00,100,12
3877,00,100,12
3876,00,100,12
3875,00,100,12
3874,00,100,12
3873,00,100,12
3872,00,100,11
3871,00,100,12
3870,00,100,12
3869,00,100,12
3868,00,100,12
3867,00,100,11
3866,00,100,11
3865,00,100,11
3864,00,100,10
3863,00,100,09
3862,00,100,08
3861,00,100,08
3860,00,100,08
3859,00,100,09
3858,00,100,10
3857,00,100,11
3856,00,100,12
3855,00,100,14
3854,00,100,15
3853,00,100,16
3852,00,100,15
3851,00,100,13
3850,00,100,11
3849,00,100,10
3848,00,100,11
3847,00,100,12
3846,00,100,13
3845,00,100,13
3844,00,100,13
3843,00,100,13
3842,00,100,13
3841,00,100,13
3840,00,100,14
3839,00,100,15
3838,00,100,15
3837,00,100,15
3836,00,100,14
3835,00,100,12
3834,00,100,12
3833,00,100,11
3832,00,100,10
3831,00,100,10
3830,00,100,09
3829,00,100,09
3828,00,100,08
3827,00,100,08
3826,00,100,08
3825,00,100,09
3824,00,100,09
3823,00,100,10
3822,00,100,11
3821,00,100,13
3820,00,100,13
3819,00,100,13
3818,00,100,12
3817,00,100,12
3816,00,100,12
3815,00,100,11
3814,00,100,11
3813,00,100,10
3812,00,100,10
3811,00,100,09
3810,00,100,09
3809,00,100,09
3808,00,100,10
3807,00,100,10
3806,00,100,11
3805,00,100,11
3804,00,100,11
3803,00,100,11
3802,00,100,12
3801,00,100,11
3800,00,100,10
3799,00,100,09
3798,00,100,09
3797,00,100,09
3796,00,100,09
3795,00,100,10
3794,00,100,11
3793,00,100,11
3792,00,100,11
3791,00,100,10
3790,00,100,10
3789,00,100,09
3788,00,100,09
3787,00,100,09
3786,00,100,09
3785,00,100,09
3784,00,100,09
3783,00,100,09
3782,00,100,09
3781,00,100,09
3780,00,100,10
3779,00,100,10
3778,00,100,10
3777,00,100,09
3776,00,100,09
3775,00,100,08
3774,00,100,09
3773,00,100,09
3772,00,100,10
3771,00,100,11
3770,00,100,11
3769,00,100,11
3768,00,100,10
3767,00,100,11
3766,00,100,11
3765,00,100,11
3764,00,100,11
3763,00,100,10
3762,00,100,09
3761,00,100,09
3760,00,100,10
3759,00,100,11
3758,00,100,11
3757,00,100,11
3756,00,100,10
3755,00,100,09
3754,00,100,09
3753,00,100,09
3752,00,100,11
3751,00,100,13
3750,00,100,14
3749,00,100,14
3748,00,100,14
3747,00,100,12
3746,00,100,11
3745,00,100,10
3744,00,100,09
3743,00,100,08
3742,00,100,08
3741,00,100,09
3740,00,100,09
3739,00,100,08
3738,00,100,08
3737,00,100,09
3736,00,100,10
3735,00,100,10
3734,00,100,10
3733,00,100,09
3732,00,100,09
3731,00,100,10
3730,00,100,10
3729,00,100,11
3728,00,100,12
3727,00,100,13
3726,00,100,12
3725,00,100,11
3724,00,100,09
3723,00,100,08
3722,00,100,07
3721,00,100,06
3720,00,100,05
3719,00,100,05
3718,00,100,06
3717,00,100,07
3716,00,100,07
3715,00,100,08
3714,00,100,08
3713,00,100,08
3712,00,100,08
3711,00,100,07
3710,00,100,06
3709,00,100,06
3708,00,100,06
3707,00,100,06
3706,00,100,07
3705,00,100,07
3704,00,100,07
3703,00,100,07
3702,00,100,06
3701,00,100,05
3700,00,100,05
3699,00,100,05
3698,00,100,05
3697,00,100,05
3696,00,100,05
3695,00,100,06
3694,00,100,06
3693,00,100,06
3692,00,100,06
3691,00,100,05
3690,00,100,05
3689,00,100,04
3688,00,100,03
3687,00,100,02
3686,00,100,02
3685,00,100,01
3684,00,100,01
3683,00,100,02
3682,00,100,02
3681,00,100,03
3680,00,100,04
3679,00,100,03
3678,00,100,03
3677,00,100,03
3676,00,100,04
3675,00,100,03
3674,00,100,01
3673,00,100,00
3672,00,99,99
3671,00,100,00
3670,00,99,99
3669,00,99,97
3668,00,99,95
3667,00,99,94
3666,00,99,95
3665,00,99,96
3664,00,99,97
3663,00,99,97
3662,00,99,96
3661,00,99,96
3660,00,99,96
3659,00,99,98
3658,00,99,99
3657,00,99,99
3656,00,99,98
3655,00,99,97
3654,00,99,96
3653,00,99,96
3652,00,99,95
3651,00,99,95
3650,00,99,94
3649,00,99,94
3648,00,99,96
3647,00,99,97
3646,00,99,96
3645,00,99,95
3644,00,99,94
3643,00,99,93
3642,00,99,92
3641,00,99,90
3640,00,99,89
3639,00,99,88
3638,00,99,89
3637,00,99,89
3636,00,99,90
3635,00,99,91
3634,00,99,92
3633,00,99,91
3632,00,99,90
3631,00,99,90
3630,00,99,90
3629,00,99,91
3628,00,99,92
3627,00,99,92
3626,00,99,92
3625,00,99,92
3624,00,99,92
3623,00,99,91
3622,00,99,91
3621,00,99,91
3620,00,99,92
3619,00,99,91
3618,00,99,90
3617,00,99,90
3616,00,99,90
3615,00,99,91
3614,00,99,91
3613,00,99,90
3612,00,99,89
3611,00,99,89
3610,00,99,89
3609,00,99,89
3608,00,99,87
3607,00,99,85
3606,00,99,85
3605,00,99,86
3604,00,99,87
3603,00,99,88
3602,00,99,89
3601,00,99,88
3600,00,99,87
3599,00,99,87
3598,00,99,88
3597,00,99,89
3596,00,99,90
3595,00,99,90
3594,00,99,90
3593,00,99,89
3592,00,99,89
3591,00,99,89
3590,00,99,88
3589,00,99,87
3588,00,99,86
3587,00,99,85
3586,00,99,85
3585,00,99,86
3584,00,99,87
3583,00,99,87
3582,00,99,87
3581,00,99,86
3580,00,99,87
3579,00,99,87
3578,00,99,88
3577,00,99,87
3576,00,99,87
3575,00,99,87
3574,00,99,86
3573,00,99,85
3572,00,99,85
3571,00,99,85
3570,00,99,85
3569,00,99,85
3568,00,99,84
3567,00,99,83
3566,00,99,81
3565,00,99,81
3564,00,99,82
3563,00,99,84
3562,00,99,86
3561,00,99,86
3560,00,99,85
3559,00,99,84
3558,00,99,83
3557,00,99,82
3556,00,99,82
3555,00,99,82
3554,00,99,82
3553,00,99,82
3552,00,99,82
3551,00,99,82
3550,00,99,82
3549,00,99,83
3548,00,99,84
3547,00,99,84
3546,00,99,84
3545,00,99,83
3544,00,99,82
3543,00,99,81
3542,00,99,81
3541,00,99,80
3540,00,99,79
3539,00,99,78
3538,00,99,77
3537,00,99,76
3536,00,99,77
3535,00,99,78
3534,00,99,79
3533,00,99,79
3532,00,99,79
3531,00,99,79
3530,00,99,78
3529,00,99,78
3528,00,99,78
3527,00,99,79
3526,00,99,79
3525,00,99,80
3524,00,99,80
3523,00,99,80
3522,00,99,79
3521,00,99,77
3520,00,99,76
3519,00,99,75
3518,00,99,75
3517,00,99,75
3516,00,99,76
3515,00,99,76
3514,00,99,76
3513,00,99,76
3512,00,99,74
3511,00,99,74
3510,00,99,74
3509,00,99,74
3508,00,99,75
3507,00,99,75
3506,00,99,74
3505,00,99,74
3504,00,99,73
3503,00,99,72
3502,00,99,70
3501,00,99,69
3500,00,99,67
3499,00,99,67
3498,00,99,68
3497,00,99,68
3496,00,99,68
3495,00,99,67
3494,00,99,66
3493,00,99,66
3492,00,99,67
3491,00,99,69
3490,00,99,70
3489,00,99,71
3488,00,99,71
3487,00,99,70
3486,00,99,70
3485,00,99,70
3484,00,99,70
3483,00,99,69
3482,00,99,69
3481,00,99,69
3480,00,99,69
3479,00,99,68
3478,00,99,67
3477,00,99,66
3476,00,99,65
3475,00,99,65
3474,00,99,66
3473,00,99,67
3472,00,99,67
3471,00,99,67
3470,00,99,67
3469,00,99,66
3468,00,99,66
3467,00,99,65
3466,00,99,65
3465,00,99,65
3464,00,99,64
3463,00,99,63
3462,00,99,62
3461,00,99,63
3460,00,99,64
3459,00,99,64
3458,00,99,64
3457,00,99,63
3456,00,99,62
3455,00,99,62
3454,00,99,62
3453,00,99,62
3452,00,99,63
3451,00,99,63
3450,00,99,64
3449,00,99,65
3448,00,99,65
3447,00,99,64
3446,00,99,63
3445,00,99,62
3444,00,99,63
3443,00,99,63
3442,00,99,63
3441,00,99,62
3440,00,99,59
3439,00,99,57
3438,00,99,55
3437,00,99,55
3436,00,99,57
3435,00,99,58
3434,00,99,59
3433,00,99,59
3432,00,99,58
3431,00,99,57
3430,00,99,57
3429,00,99,57
3428,00,99,58
3427,00,99,59
3426,00,99,59
3425,00,99,59
3424,00,99,58
3423,00,99,56
3422,00,99,54
3421,00,99,53
3420,00,99,54
3419,00,99,54
3418,00,99,55
3417,00,99,56
3416,00,99,56
3415,00,99,55
3414,00,99,53
3413,00,99,52
3412,00,99,51
3411,00,99,51
3410,00,99,52
3409,00,99,52
3408,00,99,52
3407,00,99,52
3406,00,99,52
3405,00,99,52
3404,00,99,52
3403,00,99,51
3402,00,99,51
3401,00,99,50
3400,00,99,50
3399,00,99,51
3398,00,99,52
3397,00,99,53
3396,00,99,52
3395,00,99,51
3394,00,99,50
3393,00,99,50
3392,00,99,50
3391,00,99,51
3390,00,99,50
3389,00,99,48
3388,00,99,46
3387,00,99,46
3386,00,99,46
3385,00,99,47
3384,00,99,49
3383,00,99,49
3382,00,99,49
3381,00,99,49
3380,00,99,48
3379,00,99,48
3378,00,99,49
3377,00,99,49
3376,00,99,48
3375,00,99,48
3374,00,99,47
3373,00,99,48
3372,00,99,48
3371,00,99,50
3370,00,99,51
3369,00,99,51
3368,00,99,50
3367,00,99,48
3366,00,99,48
3365,00,99,48
3364,00,99,47
3363,00,99,46
3362,00,99,45
3361,00,99,44
3360,00,99,44
3359,00,99,44
3358,00,99,45
3357,00,99,45
3356,00,99,46
3355,00,99,45
3354,00,99,44
3353,00,99,43
3352,00,99,42
3351,00,99,42
3350,00,99,42
3349,00,99,43
3348,00,99,43
3347,00,99,43
3346,00,99,43
3345,00,99,43
3344,00,99,43
3343,00,99,42
3342,00,99,41
3341,00,99,40
3340,00,99,39
3339,00,99,40
3338,00,99,41
3337,00,99,42
3336,00,99,42
3335,00,99,43
3334,00,99,44
3333,00,99,44
3332,00,99,44
3331,00,99,44
3330,00,99,43
3329,00,99,42
3328,00,99,42
3327,00,99,42
3326,00,99,42
3325,00,99,42
3324,00,99,43
3323,00,99,43
3322,00,99,43
3321,00,99,43
3320,00,99,43
3319,00,99,42
3318,00,99,41
3317,00,99,41
3316,00,99,40
3315,00,99,41
3314,00,99,42
3313,00,99,43
3312,00,99,43
3311,00,99,42
3310,00,99,41
3309,00,99,40
3308,00,99,40
3307,00,99,39
3306,00,99,39
3305,00,99,40
3304,00,99,40
3303,00,99,39
3302,00,99,39
3301,00,99,39
3300,00,99,40
3299,00,99,40
3298,00,99,40
3297,00,99,39
3296,00,99,39
3295,00,99,39
3294,00,99,40
3293,00,99,40
3292,00,99,40
3291,00,99,41
3290,00,99,41
3289,00,99,40
3288,00,99,40
3287,00,99,39
3286,00,99,39
3285,00,99,40
3284,00,99,40
3283,00,99,41
3282,00,99,41
3281,00,99,40
3280,00,99,39
3279,00,99,38
3278,00,99,38
3277,00,99,38
3276,00,99,40
3275,00,99,41
3274,00,99,42
3273,00,99,42
3272,00,99,41
3271,00,99,40
3270,00,99,39
3269,00,99,38
3268,00,99,38
3267,00,99,38
3266,00,99,37
3265,00,99,37
3264,00,99,36
3263,00,99,36
3262,00,99,36
3261,00,99,37
3260,00,99,37
3259,00,99,37
3258,00,99,37
3257,00,99,37
3256,00,99,39
3255,00,99,40
3254,00,99,41
3253,00,99,40
3252,00,99,39
3251,00,99,37
3250,00,99,36
3249,00,99,36
3248,00,99,37
3247,00,99,38
3246,00,99,39
3245,00,99,40
3244,00,99,40
3243,00,99,40
3242,00,99,40
3241,00,99,40
3240,00,99,39
3239,00,99,39
3238,00,99,38
3237,00,99,37
3236,00,99,37
3235,00,99,38
3234,00,99,40
3233,00,99,41
3232,00,99,41
3231,00,99,40
3230,00,99,39
3229,00,99,39
3228,00,99,38
3227,00,99,37
3226,00,99,37
3225,00,99,38
3224,00,99,38
3223,00,99,38
3222,00,99,37
3221,00,99,36
3220,00,99,36
3219,00,99,37
3218,00,99,39
3217,00,99,40
3216,00,99,40
3215,00,99,39
3214,00,99,38
3213,00,99,38
3212,00,99,38
3211,00,99,39
3210,00,99,39
3209,00,99,39
3208,00,99,38
3207,00,99,37
3206,00,99,37
3205,00,99,37
3204,00,99,38
3203,00,99,38
3202,00,99,38
3201,00,99,38
3200,00,99,39
3199,00,99,40
3198,00,99,40
3197,00,99,39
3196,00,99,38
3195,00,99,38
3194,00,99,39
3193,00,99,39
3192,00,99,39
3191,00,99,40
3190,00,99,41
3189,00,99,42
3188,00,99,43
3187,00,99,42
3186,00,99,41
3185,00,99,41
3184,00,99,41
3183,00,99,42
3182,00,99,41
3181,00,99,41
3180,00,99,41
3179,00,99,42
3178,00,99,43
3177,00,99,43
3176,00,99,42
3175,00,99,41
3174,00,99,41
3173,00,99,42
3172,00,99,42
3171,00,99,43
3170,00,99,43
3169,00,99,43
3168,00,99,44
3167,00,99,45
3166,00,99,46
3165,00,99,46
3164,00,99,45
3163,00,99,44
3162,00,99,44
3161,00,99,44
3160,00,99,45
3159,00,99,45
3158,00,99,45
3157,00,99,44
3156,00,99,43
3155,00,99,44
3154,00,99,44
3153,00,99,46
3152,00,99,48
3151,00,99,48
3150,00,99,48
3149,00,99,47
3148,00,99,46
3147,00,99,47
3146,00,99,47
3145,00,99,48
3144,00,99,48
3143,00,99,48
3142,00,99,48
3141,00,99,48
3140,00,99,48
3139,00,99,47
3138,00,99,46
3137,00,99,46
3136,00,99,47
3135,00,99,48
3134,00,99,48
3133,00,99,49
3132,00,99,49
3131,00,99,50
3130,00,99,51
3129,00,99,51
3128,00,99,51
3127,00,99,50
3126,00,99,49
3125,00,99,48
3124,00,99,49
3123,00,99,49
3122,00,99,50
3121,00,99,50
3120,00,99,50
3119,00,99,50
3118,00,99,50
3117,00,99,51
3116,00,99,51
3115,00,99,51
3114,00,99,52
3113,00,99,52
3112,00,99,53
3111,00,99,53
3110,00,99,54
3109,00,99,54
3108,00,99,54
3107,00,99,54
3106,00,99,55
3105,00,99,56
3104,00,99,56
3103,00,99,55
3102,00,99,54
3101,00,99,54
3100,00,99,54
3099,00,99,55
3098,00,99,56
3097,00,99,55
3096,00,99,55
3095,00,99,54
3094,00,99,53
3093,00,99,53
3092,00,99,53
3091,00,99,54
3090,00,99,56
3089,00,99,56
3088,00,99,55
3087,00,99,54
3086,00,99,53
3085,00,99,54
3084,00,99,54
3083,00,99,55
3082,00,99,55
3081,00,99,55
3080,00,99,55
3079,00,99,56
3078,00,99,57
3077,00,99,58
3076,00,99,58
3075,00,99,59
3074,00,99,59
3073,00,99,60
3072,00,99,59
3071,00,99,59
3070,00,99,58
3069,00,99,57
3068,00,99,57
3067,00,99,57
3066,00,99,58
3065,00,99,59
3064,00,99,60
3063,00,99,60
3062,00,99,59
3061,00,99,59
3060,00,99,59
3059,00,99,60
3058,00,99,61
3057,00,99,62
3056,00,99,61
3055,00,99,61
3054,00,99,61
3053,00,99,61
3052,00,99,61
3051,00,99,61
3050,00,99,61
3049,00,99,60
3048,00,99,60
3047,00,99,60
3046,00,99,60
3045,00,99,60
3044,00,99,61
3043,00,99,62
3042,00,99,63
3041,00,99,64
3040,00,99,64
3039,00,99,64
3038,00,99,63
3037,00,99,62
3036,00,99,62
3035,00,99,63
3034,00,99,64
3033,00,99,65
3032,00,99,65
3031,00,99,64
3030,00,99,64
3029,00,99,63
3028,00,99,64
3027,00,99,65
3026,00,99,66
3025,00,99,66
3024,00,99,66
3023,00,99,66
3022,00,99,66
3021,00,99,67
3020,00,99,67
3019,00,99,67
3018,00,99,66
3017,00,99,65
3016,00,99,65
3015,00,99,65
3014,00,99,66
3013,00,99,68
3012,00,99,69
3011,00,99,70
3010,00,99,70
3009,00,99,69
3008,00,99,69
3007,00,99,70
3006,00,99,71
3005,00,99,72
3004,00,99,73
3003,00,99,74
3002,00,99,75
3001,00,99,77
3000,00,99,78
2999,00,99,79
2998,00,99,80
2997,00,99,81
2996,00,99,81
2995,00,99,82
2994,00,99,81
2993,00,99,81
2992,00,99,80
2991,00,99,80
2990,00,99,80
2989,00,99,80
2988,00,99,80
2987,00,99,81
2986,00,99,83
2985,00,99,85
2984,00,99,87
2983,00,99,91
2982,00,99,93
2981,00,99,93
2980,00,99,90
2979,00,99,87
2978,00,99,83
2977,00,99,80
2976,00,99,77
2975,00,99,75
2974,00,99,73
2973,00,99,73
2972,00,99,73
2971,00,99,74
2970,00,99,74
2969,00,99,73
2968,00,99,71
2967,00,99,70
2966,00,99,69
2965,00,99,69
2964,00,99,68
2963,00,99,66
2962,00,99,65
2961,00,99,65
2960,00,99,65
2959,00,99,65
2958,00,99,67
2957,00,99,69
2956,00,99,71
2955,00,99,72
2954,00,99,70
2953,00,99,68
2952,00,99,67
2951,00,99,67
2950,00,99,68
2949,00,99,68
2948,00,99,67
2947,00,99,67
2946,00,99,67
2945,00,99,67
2944,00,99,67
2943,00,99,67
2942,00,99,67
2941,00,99,66
2940,00,99,65
2939,00,99,65
2938,00,99,65
2937,00,99,65
2936,00,99,66
2935,00,99,67
2934,00,99,68
2933,00,99,69
2932,00,99,69
2931,00,99,70
2930,00,99,71
2929,00,99,71
2928,00,99,72
2927,00,99,72
2926,00,99,72
2925,00,99,72
2924,00,99,73
2923,00,99,74
2922,00,99,76
2921,00,99,76
2920,00,99,75
2919,00,99,75
2918,00,99,76
2917,00,99,77
2916,00,99,78
2915,00,99,79
2914,00,99,79
2913,00,99,79
2912,00,99,79
2911,00,99,80
2910,00,99,81
2909,00,99,82
2908,00,99,82
2907,00,99,82
2906,00,99,82
2905,00,99,82
2904,00,99,83
2903,00,99,84
2902,00,99,84
2901,00,99,84
2900,00,99,84
2899,00,99,84
2898,00,99,85
2897,00,99,86
2896,00,99,86
2895,00,99,86
2894,00,99,86
2893,00,99,86
2892,00,99,87
2891,00,99,87
2890,00,99,87
2889,00,99,86
2888,00,99,85
2887,00,99,83
2886,00,99,81
2885,00,99,80
2884,00,99,78
2883,00,99,76
2882,00,99,74
2881,00,99,73
2880,00,99,73
2879,00,99,74
2878,00,99,75
2877,00,99,75
2876,00,99,75
2875,00,99,76
2874,00,99,77
2873,00,99,78
2872,00,99,79
2871,00,99,79
2870,00,99,80
2869,00,99,81
2868,00,99,82
2867,00,99,84
2866,00,99,85
2865,00,99,84
2864,00,99,83
2863,00,99,82
2862,00,99,82
2861,00,99,83
2860,00,99,85
2859,00,99,87
2858,00,99,87
2857,00,99,87
2856,00,99,87
2855,00,99,88
2854,00,99,88
2853,00,99,88
2852,00,99,88
2851,00,99,87
2850,00,99,88
2849,00,99,88
2848,00,99,88
2847,00,99,88
2846,00,99,88
2845,00,99,89
2844,00,99,89
2843,00,99,89
2842,00,99,89
2841,00,99,89
2840,00,99,88
2839,00,99,88
2838,00,99,88
2837,00,99,89
2836,00,99,90
2835,00,99,90
2834,00,99,90
2833,00,99,91
2832,00,99,91
2831,00,99,91
2830,00,99,91
2829,00,99,92
2828,00,99,92
2827,00,99,92
2826,00,99,92
2825,00,99,91
2824,00,99,91
2823,00,99,91
2822,00,99,91
2821,00,99,92
2820,00,99,92
2819,00,99,94
2818,00,99,95
2817,00,99,96
2816,00,99,95
2815,00,99,95
2814,00,99,94
2813,00,99,93
2812,00,99,92
2811,00,99,92
2810,00,99,92
2809,00,99,93
2808,00,99,93
2807,00,99,93
2806,00,99,93
2805,00,99,93
2804,00,99,93
2803,00,99,93
2802,00,99,93
2801,00,99,94
2800,00,99,94
2799,00,99,94
2798,00,99,94
2797,00,99,93
2796,00,99,93
2795,00,99,93
2794,00,99,93
2793,00,99,93
2792,00,99,94
2791,00,99,93
2790,00,99,93
2789,00,99,93
2788,00,99,93
2787,00,99,93
2786,00,99,94
2785,00,99,94
2784,00,99,94
2783,00,99,94
2782,00,99,94
2781,00,99,94
2780,00,99,94
2779,00,99,94
2778,00,99,95
2777,00,99,95
2776,00,99,95
2775,00,99,96
2774,00,99,96
2773,00,99,96
2772,00,99,96
2771,00,99,96
2770,00,99,96
2769,00,99,96
2768,00,99,96
2767,00,99,96
2766,00,99,95
2765,00,99,95
2764,00,99,94
2763,00,99,95
2762,00,99,96
2761,00,99,97
2760,00,99,98
2759,00,99,99
2758,00,99,99
2757,00,99,98
2756,00,99,97
2755,00,99,96
2754,00,99,95
2753,00,99,94
2752,00,99,94
2751,00,99,95
2750,00,99,96
2749,00,99,97
2748,00,99,98
2747,00,99,98
2746,00,99,97
2745,00,99,97
2744,00,99,98
2743,00,99,98
2742,00,99,97
2741,00,99,97
2740,00,99,97
2739,00,99,97
2738,00,99,97
2737,00,99,97
2736,00,99,97
2735,00,99,98
2734,00,99,97
2733,00,99,96
2732,00,99,95
2731,00,99,95
2730,00,99,95
2729,00,99,95
2728,00,99,95
2727,00,99,96
2726,00,99,97
2725,00,99,98
2724,00,99,97
2723,00,99,97
2722,00,99,97
2721,00,99,97
2720,00,99,97
2719,00,99,97
2718,00,99,97
2717,00,99,96
2716,00,99,96
2715,00,99,97
2714,00,99,98
2713,00,99,98
2712,00,99,98
2711,00,99,98
2710,00,99,98
2709,00,99,98
2708,00,99,98
2707,00,99,97
2706,00,99,98
2705,00,99,98
2704,00,99,98
2703,00,99,98
2702,00,99,98
2701,00,99,97
2700,00,99,97
2699,00,99,96
2698,00,99,97
2697,00,99,97
2696,00,99,98
2695,00,99,98
2694,00,99,97
2693,00,99,97
2692,00,99,97
2691,00,99,97
2690,00,99,98
2689,00,99,99
2688,00,99,99
2687,00,100,00
2686,00,99,99
2685,00,99,99
2684,00,99,99
2683,00,99,99
2682,00,99,99
2681,00,99,99
2680,00,99,99
2679,00,99,99
2678,00,99,99
2677,00,99,99
2676,00,99,99
2675,00,99,98
2674,00,99,98
2673,00,99,98
2672,00,99,98
2671,00,99,99
2670,00,99,99
2669,00,100,00
2668,00,100,00
2667,00,100,00
2666,00,100,00
2665,00,99,99
2664,00,99,99
2663,00,99,99
2662,00,99,99
2661,00,99,99
2660,00,99,99
2659,00,100,00
2658,00,100,00
2657,00,100,00
2656,00,100,00
2655,00,100,01
2654,00,100,01
2653,00,100,01
2652,00,100,01
2651,00,100,00
2650,00,100,00
2649,00,99,99
2648,00,99,99
2647,00,99,99
2646,00,99,99
2645,00,100,00
2644,00,99,99
2643,00,99,99
2642,00,100,00
2641,00,100,00
2640,00,100,00
2639,00,100,00
2638,00,100,00
2637,00,100,00
2636,00,100,00
2635,00,100,00
2634,00,100,00
2633,00,100,01
2632,00,100,01
2631,00,100,02
2630,00,100,02
2629,00,100,02
2628,00,100,02
2627,00,100,01
2626,00,100,00
2625,00,100,00
2624,00,100,01
2623,00,100,01
2622,00,100,02
2621,00,100,03
2620,00,100,02
2619,00,100,01
2618,00,100,00
2617,00,99,98
2616,00,99,98
2615,00,99,98
2614,00,99,99
2613,00,100,00
2612,00,100,01
2611,00,100,01
2610,00,100,01
2609,00,100,01
2608,00,100,01
2607,00,100,02
2606,00,100,02
2605,00,100,01
2604,00,100,01
2603,00,100,02
2602,00,100,03
2601,00,100,04
2600,00,100,04
2599,00,100,03
2598,00,100,02
2597,00,100,01
2596,00,100,01
2595,00,100,01
2594,00,100,01
2593,00,100,00
2592,00,99,99
2591,00,99,98
2590,00,99,98
2589,00,99,99
2588,00,100,00
2587,00,100,00
2586,00,100,00
2585,00,100,01
2584,00,100,01
2583,00,100,01
2582,00,100,02
2581,00,100,03
2580,00,100,03
2579,00,100,03
2578,00,100,02
2577,00,100,00
2576,00,100,00
2575,00,100,01
2574,00,100,03
2573,00,100,04
2572,00,100,04
2571,00,100,04
2570,00,100,03
2569,00,100,02
2568,00,100,02
2567,00,100,02
2566,00,100,02
2565,00,100,02
2564,00,100,03
2563,00,100,03
2562,00,100,04
2561,00,100,05
2560,00,100,04
2559,00,100,02
2558,00,100,01
2557,00,100,01
2556,00,100,02
2555,00,100,04
2554,00,100,05
2553,00,100,05
2552,00,100,04
2551,00,100,03
2550,00,100,02
2549,00,100,02
2548,00,100,02
2547,00,100,01
2546,00,100,01
2545,00,100,02
2544,00,100,03
2543,00,100,03
2542,00,100,03
2541,00,100,03
2540,00,100,02
2539,00,100,02
2538,00,100,03
2537,00,100,02
2536,00,100,00
2535,00,99,98
2534,00,99,98
2533,00,99,99
2532,00,100,01
2531,00,100,03
2530,00,100,04
2529,00,100,04
2528,00,100,03
2527,00,100,02
2526,00,100,02
2525,00,100,03
2524,00,100,04
2523,00,100,04
2522,00,100,03
2521,00,100,02
2520,00,100,01
2519,00,100,00
2518,00,100,00
2517,00,100,00
2516,00,100,01
2515,00,100,03
2514,00,100,03
2513,00,100,03
2512,00,100,03
2511,00,100,02
2510,00,100,03
2509,00,100,03
2508,00,100,04
2507,00,100,03
2506,00,100,03
2505,00,100,04
2504,00,100,06
2503,00,100,09
2502,00,100,10
2501,00,100,10
2500,00,100,09
2499,00,100,08
2498,00,100,06
2497,00,100,05
2496,00,100,04
2495,00,100,03
2494,00,100,03
2493,00,100,04
2492,00,100,05
2491,00,100,05
2490,00,100,05
2489,00,100,04
2488,00,100,04
2487,00,100,03
2486,00,100,03
2485,00,100,03
2484,00,100,03
2483,00,100,03
2482,00,100,04
2481,00,100,05
2480,00,100,05
2479,00,100,04
2478,00,100,03
2477,00,100,03
2476,00,100,02
2475,00,100,02
2474,00,100,02
2473,00,100,02
2472,00,100,02
2471,00,100,03
2470,00,100,03
2469,00,100,04
2468,00,100,04
2467,00,100,03
2466,00,100,02
2465,00,100,03
2464,00,100,03
2463,00,100,04
2462,00,100,04
2461,00,100,03
2460,00,100,02
2459,00,100,02
2458,00,100,02
2457,00,100,03
2456,00,100,04
2455,00,100,05
2454,00,100,04
2453,00,100,02
2452,00,100,02
2451,00,100,01
2450,00,100,01
2449,00,100,02
2448,00,100,03
2447,00,100,04
2446,00,100,05
2445,00,100,05
2444,00,100,04
2443,00,100,03
2442,00,100,03
2441,00,100,02
2440,00,100,03
2439,00,100,04
2438,00,100,04
2437,00,100,04
2436,00,100,04
2435,00,100,04
2434,00,100,04
2433,00,100,04
2432,00,100,04
2431,00,100,04
2430,00,100,03
2429,00,100,03
2428,00,100,04
2427,00,100,04
2426,00,100,05
2425,00,100,06
2424,00,100,06
2423,00,100,05
2422,00,100,04
2421,00,100,03
2420,00,100,03
2419,00,100,04
2418,00,100,04
2417,00,100,04
2416,00,100,03
2415,00,100,04
2414,00,100,04
2413,00,100,03
2412,00,100,03
2411,00,100,03
2410,00,100,03
2409,00,100,03
2408,00,100,02
2407,00,100,02
2406,00,100,02
2405,00,100,02
2404,00,100,02
2403,00,100,02
2402,00,100,02
2401,00,100,03
2400,00,100,03
2399,00,100,03
2398,00,100,02
2397,00,100,01
2396,00,100,01
2395,00,100,02
2394,00,100,03
2393,00,100,03
2392,00,100,04
2391,00,100,04
2390,00,100,04
2389,00,100,03
2388,00,100,03
2387,00,100,03
2386,00,100,03
2385,00,100,03
2384,00,100,04
2383,00,100,05
2382,00,100,04
2381,00,100,04
2380,00,100,04
2379,00,100,03
2378,00,100,02
2377,00,100,02
2376,00,100,03
2375,00,100,03
2374,00,100,04
2373,00,100,04
2372,00,100,04
2371,00,100,04
2370,00,100,04
2369,00,100,04
2368,00,100,04
2367,00,100,04
2366,00,100,03
2365,00,100,02
2364,00,100,04
2363,00,100,05
2362,00,100,05
2361,00,100,04
2360,00,100,03
2359,00,100,04
2358,00,100,06
2357,00,100,04
2356,00,100,03
2355,00,100,03
2354,00,100,04
2353,00,100,05
2352,00,100,05
2351,00,100,04
2350,00,100,04
2349,00,100,04
2348,00,100,04
2347,00,100,03
2346,00,100,03
2345,00,100,06
2344,00,100,06
2343,00,100,04
2342,00,100,01
2341,00,100,00
2340,00,100,00
2339,00,100,02
2338,00,100,03
2337,00,100,06
2336,00,100,08
2335,00,100,09
2334,00,100,10
2333,00,100,08
2332,00,100,04
2331,00,100,01
2330,00,100,01
2329,00,100,02
2328,00,100,03
2327,00,100,03
2326,00,100,01
2325,00,99,99
2324,00,99,98
2323,00,100,01
2322,00,100,04
2321,00,100,05
2320,00,100,05
2319,00,100,05
2318,00,100,06
2317,00,100,07
2316,00,100,06
2315,00,100,05
2314,00,100,03
2313,00,100,02
2312,00,100,02
2311,00,100,02
2310,00,100,03
2309,00,100,03
2308,00,100,02
2307,00,100,01
2306,00,100,00
2305,00,100,01
2304,00,100,03
2303,00,100,04
2302,00,100,04
2301,00,100,04
2300,00,100,04
2299,00,100,04
2298,00,100,04
2297,00,100,04
2296,00,100,04
2295,00,100,04
2294,00,100,02
2293,00,100,00
2292,00,99,99
2291,00,99,99
2290,00,99,99
2289,00,99,99
2288,00,100,00
2287,00,100,01
2286,00,100,02
2285,00,100,02
2284,00,100,02
2283,00,100,01
2282,00,100,00
2281,00,100,00
2280,00,100,00
2279,00,100,01
2278,00,100,01
2277,00,100,01
2276,00,100,01
2275,00,100,02
2274,00,100,02
2273,00,100,01
2272,00,100,00
2271,00,100,01
2270,00,100,03
2269,00,100,04
2268,00,100,03
2267,00,100,00
2266,00,99,98
2265,00,99,98
2264,00,99,99
2263,00,100,00
2262,00,100,02
2261,00,100,03
2260,00,100,03
2259,00,100,03
2258,00,100,01
2257,00,100,00
2256,00,100,00
2255,00,100,01
2254,00,100,01
2253,00,99,99
2252,00,99,97
2251,00,99,96
2250,00,99,95
2249,00,99,94
2248,00,99,94
2247,00,99,95
2246,00,99,98
2245,00,99,99
2244,00,99,99
2243,00,99,98
2242,00,99,99
2241,00,99,99
2240,00,100,00
2239,00,99,99
2238,00,99,98
2237,00,99,98
2236,00,99,99
2235,00,100,02
2234,00,100,02
2233,00,100,01
2232,00,99,99
2231,00,99,99
2230,00,100,00
2229,00,100,02
2228,00,100,02
2227,00,100,03
2226,00,100,03
2225,00,100,03
2224,00,100,01
2223,00,100,00
2222,00,99,98
2221,00,99,97
2220,00,99,96
2219,00,99,97
2218,00,99,99
2217,00,99,99
2216,00,99,98
2215,00,99,96
2214,00,99,96
2213,00,99,99
2212,00,100,02
2211,00,100,04
2210,00,100,04
2209,00,100,04
2208,00,100,04
2207,00,100,04
2206,00,100,03
2205,00,100,02
2204,00,100,00
2203,00,100,00
2202,00,100,01
2201,00,100,02
2200,00,100,02
2199,00,100,02
2198,00,100,02
2197,00,100,01
2196,00,100,00
2195,00,99,98
2194,00,99,96
2193,00,99,94
2192,00,99,95
2191,00,99,98
2190,00,99,99
2189,00,99,97
2188,00,99,94
2187,00,99,92
2186,00,99,92
2185,00,99,94
2184,00,99,95
2183,00,99,97
2182,00,99,99
2181,00,100,01
2180,00,100,01
2179,00,99,99
2178,00,99,99
2177,00,100,03
2176,00,100,06
2175,00,100,04
2174,00,99,99
2173,00,99,94
2172,00,99,92
2171,00,99,94
2170,00,99,97
2169,00,99,99
2168,00,100,00
2167,00,100,00
2166,00,100,00
2165,00,99,99
2164,00,99,99
2163,00,99,98
2162,00,99,96
2161,00,99,94
2160,00,99,94
2159,00,99,97
2158,00,100,00
2157,00,100,00
2156,00,99,98
2155,00,99,95
2154,00,99,95
2153,00,99,97
2152,00,100,01
2151,00,100,05
2150,00,100,07
2149,00,100,09
2148,00,100,09
2147,00,100,07
2146,00,100,04
2145,00,100,01
2144,00,100,00
2143,00,100,00
2142,00,100,00
2141,00,99,99
2140,00,99,99
2139,00,100,00
2138,00,100,02
2137,00,100,03
2136,00,100,02
2135,00,100,00
2134,00,99,98
2133,00,99,96
2132,00,99,93
2131,00,99,92
2130,00,99,93
2129,00,99,94
2128,00,99,94
2127,00,99,94
2126,00,99,95
2125,00,99,97
2124,00,99,98
2123,00,99,98
2122,00,99,97
2121,00,99,96
2120,00,99,95
2119,00,99,95
2118,00,99,96
2117,00,99,97
2116,00,100,00
2115,00,100,02
2114,00,100,02
2113,00,100,01
2112,00,99,99
2111,00,99,98
2110,00,99,99
2109,00,100,00
2108,00,100,00
2107,00,100,01
2106,00,100,02
2105,00,100,03
2104,00,100,03
2103,00,100,02
2102,00,100,00
2101,00,100,00
2100,00,100,01
2099,00,100,01
2098,00,100,00
2097,00,99,98
2096,00,99,98
2095,00,99,97
2094,00,99,97
2093,00,99,97
2092,00,99,98
2091,00,99,99
2090,00,99,99
2089,00,99,99
2088,00,99,99
2087,00,99,98
2086,00,99,97
2085,00,99,96
2084,00,99,98
2083,00,100,00
2082,00,100,01
2081,00,99,99
2080,00,99,96
2079,00,99,95
2078,00,99,93
2077,00,99,91
2076,00,99,91
2075,00,99,92
2074,00,99,94
2073,00,99,95
2072,00,99,94
2071,00,99,94
2070,00,99,93
2069,00,99,93
2068,00,99,93
2067,00,99,93
2066,00,99,93
2065,00,99,93
2064,00,99,94
2063,00,99,97
2062,00,99,98
2061,00,99,97
2060,00,99,94
2059,00,99,93
2058,00,99,93
2057,00,99,95
2056,00,99,98
2055,00,100,01
2054,00,100,03
2053,00,100,03
2052,00,99,99
2051,00,99,97
2050,00,99,98
2049,00,100,02
2048,00,100,04
2047,00,100,02
2046,00,99,98
2045,00,99,95
2044,00,99,94
2043,00,99,93
2042,00,99,92
2041,00,99,89
2040,00,99,87
2039,00,99,86
2038,00,99,88
2037,00,99,91
2036,00,99,96
2035,00,99,97
2034,00,99,96
2033,00,99,92
2032,00,99,89
2031,00,99,88
2030,00,99,87
2029,00,99,86
2028,00,99,84
2027,00,99,81
2026,00,99,78
2025,00,99,80
2024,00,99,86
2023,00,99,93
2022,00,99,97
2021,00,99,97
2020,00,99,96
2019,00,99,96
2018,00,99,95
2017,00,99,93
2016,00,99,92
2015,00,99,94
2014,00,99,95
2013,00,99,94
2012,00,99,92
2011,00,99,92
2010,00,99,93
2009,00,99,91
2008,00,99,90
2007,00,99,89
2006,00,99,90
2005,00,99,91
2004,00,99,90
2003,00,99,90
2002,00,99,89
2001,00,99,88
2000,00,99,89
1999,00,99,90
1998,00,99,91
1997,00,99,90
1996,00,99,87
1995,00,99,87
1994,00,99,88
1993,00,99,92
1992,00,99,96
1991,00,100,01
1990,00,100,04
1989,00,100,01
1988,00,99,94
1987,00,99,87
1986,00,99,84
1985,00,99,83
1984,00,99,82
1983,00,99,82
1982,00,99,82
1981,00,99,81
1980,00,99,79
1979,00,99,81
1978,00,99,86
1977,00,99,92
1976,00,99,94
1975,00,99,92
1974,00,99,88
1973,00,99,83
1972,00,99,80
1971,00,99,81
1970,00,99,86
1969,00,99,93
1968,00,99,96
1967,00,99,96
1966,00,99,93
1965,00,99,89
1964,00,99,86
1963,00,99,84
1962,00,99,83
1961,00,99,84
1960,00,99,86
1959,00,99,88
1958,00,99,89
1957,00,99,88
1956,00,99,86
1955,00,99,86
1954,00,99,87
1953,00,99,89
1952,00,99,89
1951,00,99,88
1950,00,99,87
1949,00,99,88
1948,00,99,90
1947,00,99,92
1946,00,99,91
1945,00,99,89
1944,00,99,86
1943,00,99,85
1942,00,99,86
1941,00,99,89
1940,00,99,91
1939,00,99,93
1938,00,99,93
1937,00,99,92
1936,00,99,91
1935,00,99,91
1934,00,99,91
1933,00,99,91
1932,00,99,90
1931,00,99,89
1930,00,99,88
1929,00,99,87
1928,00,99,87
1927,00,99,87
1926,00,99,87
1925,00,99,88
1924,00,99,88
1923,00,99,87
1922,00,99,86
1921,00,99,85
1920,00,99,85
1919,00,99,85
1918,00,99,85
1917,00,99,84
1916,00,99,84
1915,00,99,84
1914,00,99,85
1913,00,99,84
1912,00,99,84
1911,00,99,82
1910,00,99,81
1909,00,99,80
1908,00,99,82
1907,00,99,85
1906,00,99,87
1905,00,99,87
1904,00,99,85
1903,00,99,84
1902,00,99,84
1901,00,99,85
1900,00,99,86
1899,00,99,85
1898,00,99,84
1897,00,99,82
1896,00,99,81
1895,00,99,82
1894,00,99,82
1893,00,99,83
1892,00,99,83
1891,00,99,84
1890,00,99,85
1889,00,99,85
1888,00,99,84
1887,00,99,83
1886,00,99,83
1885,00,99,83
1884,00,99,84
1883,00,99,85
1882,00,99,86
1881,00,99,85
1880,00,99,84
1879,00,99,84
1878,00,99,84
1877,00,99,84
1876,00,99,83
1875,00,99,82
1874,00,99,81
1873,00,99,80
1872,00,99,79
1871,00,99,78
1870,00,99,78
1869,00,99,78
1868,00,99,78
1867,00,99,79
1866,00,99,80
1865,00,99,81
1864,00,99,82
1863,00,99,82
1862,00,99,82
1861,00,99,81
1860,00,99,80
1859,00,99,80
1858,00,99,81
1857,00,99,82
1856,00,99,82
1855,00,99,80
1854,00,99,78
1853,00,99,78
1852,00,99,79
1851,00,99,80
1850,00,99,80
1849,00,99,81
1848,00,99,81
1847,00,99,82
1846,00,99,83
1845,00,99,83
1844,00,99,81
1843,00,99,80
1842,00,99,80
1841,00,99,80
1840,00,99,80
1839,00,99,80
1838,00,99,79
1837,00,99,78
1836,00,99,78
1835,00,99,79
1834,00,99,81
1833,00,99,82
1832,00,99,82
1831,00,99,82
1830,00,99,82
1829,00,99,82
1828,00,99,83
1827,00,99,83
1826,00,99,83
1825,00,99,83
1824,00,99,82
1823,00,99,81
1822,00,99,81
1821,00,99,82
1820,00,99,83
1819,00,99,85
1818,00,99,86
1817,00,99,86
1816,00,99,86
1815,00,99,85
1814,00,99,84
1813,00,99,84
1812,00,99,85
1811,00,99,85
1810,00,99,85
1809,00,99,85
1808,00,99,86
1807,00,99,87
1806,00,99,87
1805,00,99,86
1804,00,99,84
1803,00,99,83
1802,00,99,83
1801,00,99,84
1800,00,99,84
1799,00,99,85
1798,00,99,84
1797,00,99,84
1796,00,99,83
1795,00,99,83
1794,00,99,82
1793,00,99,83
1792,00,99,84
1791,00,99,84
1790,00,99,85
1789,00,99,84
1788,00,99,84
1787,00,99,84
1786,00,99,84
1785,00,99,85
1784,00,99,85
1783,00,99,84
1782,00,99,83
1781,00,99,83
1780,00,99,83
1779,00,99,83
1778,00,99,84
1777,00,99,85
1776,00,99,85
1775,00,99,85
1774,00,99,84
1773,00,99,84
1772,00,99,85
1771,00,99,86
1770,00,99,85
1769,00,99,85
1768,00,99,84
1767,00,99,85
1766,00,99,84
1765,00,99,84
1764,00,99,84
1763,00,99,83
1762,00,99,83
1761,00,99,83
1760,00,99,83
1759,00,99,83
1758,00,99,83
1757,00,99,83
1756,00,99,83
1755,00,99,82
1754,00,99,82
1753,00,99,82
1752,00,99,83
1751,00,99,83
1750,00,99,83
1749,00,99,83
1748,00,99,83
1747,00,99,82
1746,00,99,82
1745,00,99,82
1744,00,99,83
1743,00,99,83
1742,00,99,82
1741,00,99,82
1740,00,99,82
1739,00,99,83
1738,00,99,83
1737,00,99,83
1736,00,99,83
1735,00,99,84
1734,00,99,84
1733,00,99,83
1732,00,99,82
1731,00,99,81
1730,00,99,80
1729,00,99,81
1728,00,99,81
1727,00,99,81
1726,00,99,80
1725,00,99,79
1724,00,99,79
1723,00,99,80
1722,00,99,81
1721,00,99,83
1720,00,99,83
1719,00,99,83
1718,00,99,82
1717,00,99,80
1716,00,99,79
1715,00,99,78
1714,00,99,77
1713,00,99,77
1712,00,99,77
1711,00,99,77
1710,00,99,77
1709,00,99,77
1708,00,99,77
1707,00,99,77
1706,00,99,76
1705,00,99,76
1704,00,99,77
1703,00,99,77
1702,00,99,76
1701,00,99,75
1700,00,99,74
1699,00,99,74
1698,00,99,75
1697,00,99,74
1696,00,99,73
1695,00,99,73
1694,00,99,73
1693,00,99,74
1692,00,99,76
1691,00,99,77
1690,00,99,77
1689,00,99,76
1688,00,99,75
1687,00,99,74
1686,00,99,73
1685,00,99,70
1684,00,99,67
1683,00,99,68
1682,00,99,69
1681,00,99,70
1680,00,99,69
1679,00,99,68
1678,00,99,68
1677,00,99,68
1676,00,99,68
1675,00,99,67
1674,00,99,65
1673,00,99,63
1672,00,99,62
1671,00,99,61
1670,00,99,61
1669,00,99,61
1668,00,99,61
1667,00,99,60
1666,00,99,60
1665,00,99,60
1664,00,99,59
1663,00,99,58
1662,00,99,57
1661,00,99,57
1660,00,99,57
1659,00,99,57
1658,00,99,56
1657,00,99,55
1656,00,99,55
1655,00,99,55
1654,00,99,54
1653,00,99,53
1652,00,99,52
1651,00,99,52
1650,00,99,51
1649,00,99,49
1648,00,99,47
1647,00,99,46
1646,00,99,46
1645,00,99,46
1644,00,99,46
1643,00,99,46
1642,00,99,46
1641,00,99,45
1640,00,99,44
1639,00,99,43
1638,00,99,43
1637,00,99,43
1636,00,99,43
1635,00,99,41
1634,00,99,40
1633,00,99,39
1632,00,99,39
1631,00,99,40
1630,00,99,40
1629,00,99,40
1628,00,99,41
1627,00,99,41
1626,00,99,41
1625,00,99,41
1624,00,99,40
1623,00,99,41
1622,00,99,42
1621,00,99,43
1620,00,99,44
1619,00,99,45
1618,00,99,45
1617,00,99,45
1616,00,99,47
1615,00,99,49
1614,00,99,51
1613,00,99,52
1612,00,99,52
1611,00,99,53
1610,00,99,54
1609,00,99,55
1608,00,99,56
1607,00,99,58
1606,00,99,59
1605,00,99,61
1604,00,99,61
1603,00,99,62
1602,00,99,62
1601,00,99,63
1600,00,99,64
1599,00,99,64
1598,00,99,65
1597,00,99,65
1596,00,99,66
1595,00,99,67
1594,00,99,68
1593,00,99,68
1592,00,99,67
1591,00,99,67
1590,00,99,67
1589,00,99,67
1588,00,99,68
1587,00,99,68
1586,00,99,68
1585,00,99,68
1584,00,99,70
1583,00,99,71
1582,00,99,71
1581,00,99,70
1580,00,99,70
1579,00,99,70
1578,00,99,70
1577,00,99,70
1576,00,99,69
1575,00,99,70
1574,00,99,70
1573,00,99,70
1572,00,99,70
1571,00,99,70
1570,00,99,70
1569,00,99,70
1568,00,99,70
1567,00,99,71
1566,00,99,71
1565,00,99,71
1564,00,99,71
1563,00,99,72
1562,00,99,72
1561,00,99,73
1560,00,99,75
1559,00,99,76
1558,00,99,76
1557,00,99,75
1556,00,99,73
1555,00,99,72
1554,00,99,71
1553,00,99,70
1552,00,99,70
1551,00,99,70
1550,00,99,69
1549,00,99,68
1548,00,99,69
1547,00,99,70
1546,00,99,70
1545,00,99,69
1544,00,99,68
1543,00,99,68
1542,00,99,70
1541,00,99,72
1540,00,99,73
1539,00,99,72
1538,00,99,72
1537,00,99,70
1536,00,99,69
1535,00,99,69
1534,00,99,69
1533,00,99,70
1532,00,99,70
1531,00,99,70
1530,00,99,71
1529,00,99,71
1528,00,99,71
1527,00,99,70
1526,00,99,70
1525,00,99,70
1524,00,99,69
1523,00,99,69
1522,00,99,68
1521,00,99,68
1520,00,99,69
1519,00,99,70
1518,00,99,72
1517,00,99,72
1516,00,99,72
1515,00,99,72
1514,00,99,72
1513,00,99,72
1512,00,99,73
1511,00,99,73
1510,00,99,72
1509,00,99,71
1508,00,99,70
1507,00,99,69
1506,00,99,69
1505,00,99,69
1504,00,99,69
1503,00,99,69
1502,00,99,69
1501,00,99,69
1500,00,99,70
1499,00,99,69
1498,00,99,69
1497,00,99,68
1496,00,99,67
1495,00,99,65
1494,00,99,63
1493,00,99,60
1492,00,99,57
1491,00,99,53
1490,00,99,49
1489,00,99,45
1488,00,99,42
1487,00,99,40
1486,00,99,39
1485,00,99,38
1484,00,99,38
1483,00,99,38
1482,00,99,39
1481,00,99,41
1480,00,99,42
1479,00,99,43
1478,00,99,44
1477,00,99,43
1476,00,99,42
1475,00,99,41
1474,00,99,40
1473,00,99,39
1472,00,99,37
1471,00,99,36
1470,00,99,36
1469,00,99,36
1468,00,99,35
1467,00,99,35
1466,00,99,35
1465,00,99,36
1464,00,99,37
1463,00,99,38
1462,00,99,39
1461,00,99,41
1460,00,99,43
1459,00,99,44
1458,00,99,47
1457,00,99,50
1456,00,99,52
1455,00,99,54
1454,00,99,54
1453,00,99,55
1452,00,99,56
1451,00,99,57
1450,00,99,59
1449,00,99,61
1448,00,99,62
1447,00,99,62
1446,00,99,63
1445,00,99,63
1444,00,99,64
1443,00,99,65
1442,00,99,65
1441,00,99,66
1440,00,99,66
1439,00,99,66
1438,00,99,66
1437,00,99,66
1436,00,99,66
1435,00,99,66
1434,00,99,65
1433,00,99,65
1432,00,99,66
1431,00,99,66
1430,00,99,66
1429,00,99,66
1428,00,99,66
1427,00,99,66
1426,00,99,66
1425,00,99,65
1424,00,99,65
1423,00,99,65
1422,00,99,65
1421,00,99,65
1420,00,99,66
1419,00,99,65
1418,00,99,65
1417,00,99,66
1416,00,99,66
1415,00,99,67
1414,00,99,67
1413,00,99,67
1412,00,99,67
1411,00,99,67
1410,00,99,67
1409,00,99,67
1408,00,99,67
1407,00,99,68
1406,00,99,68
1405,00,99,67
1404,00,99,67
1403,00,99,67
1402,00,99,67
1401,00,99,69
1400,00,99,71
1399,00,99,72
1398,00,99,72
1397,00,99,72
1396,00,99,71
1395,00,99,70
1394,00,99,70
1393,00,99,69
1392,00,99,68
1391,00,99,65
1390,00,99,63
1389,00,99,62
1388,00,99,61
1387,00,99,60
1386,00,99,58
1385,00,99,56
1384,00,99,54
1383,00,99,54
1382,00,99,55
1381,00,99,56
1380,00,99,57
1379,00,99,58
1378,00,99,59
1377,00,99,59
1376,00,99,60
1375,00,99,61
1374,00,99,62
1373,00,99,63
1372,00,99,63
1371,00,99,64
1370,00,99,64
1369,00,99,63
1368,00,99,62
1367,00,99,61
1366,00,99,61
1365,00,99,61
1364,00,99,61
1363,00,99,60
1362,00,99,59
1361,00,99,58
1360,00,99,58
1359,00,99,57
1358,00,99,56
1357,00,99,56
1356,00,99,55
1355,00,99,54
1354,00,99,53
1353,00,99,52
1352,00,99,52
1351,00,99,52
1350,00,99,52
1349,00,99,52
1348,00,99,52
1347,00,99,52
1346,00,99,51
1345,00,99,50
1344,00,99,49
1343,00,99,48
1342,00,99,48
1341,00,99,48
1340,00,99,48
1339,00,99,48
1338,00,99,48
1337,00,99,48
1336,00,99,48
1335,00,99,48
1334,00,99,49
1333,00,99,48
1332,00,99,47
1331,00,99,46
1330,00,99,44
1329,00,99,44
1328,00,99,43
1327,00,99,43
1326,00,99,43
1325,00,99,42
1324,00,99,41
1323,00,99,40
1322,00,99,38
1321,00,99,37
1320,00,99,36
1319,00,99,35
1318,00,99,34
1317,00,99,33
1316,00,99,33
1315,00,99,32
1314,00,99,31
1313,00,99,30
1312,00,99,29
1311,00,99,28
1310,00,99,27
1309,00,99,26
1308,00,99,24
1307,00,99,23
1306,00,99,22
1305,00,99,21
1304,00,99,20
1303,00,99,20
1302,00,99,19
1301,00,99,18
1300,00,99,16
1299,00,99,15
1298,00,99,14
1297,00,99,12
1296,00,99,10
1295,00,99,08
1294,00,99,06
1293,00,99,05
1292,00,99,03
1291,00,99,01
1290,00,98,99
1289,00,98,96
1288,00,98,94
1287,00,98,92
1286,00,98,91
1285,00,98,88
1284,00,98,85
1283,00,98,82
1282,00,98,79
1281,00,98,77
1280,00,98,75
1279,00,98,72
1278,00,98,69
1277,00,98,65
1276,00,98,62
1275,00,98,58
1274,00,98,56
1273,00,98,53
1272,00,98,49
1271,00,98,44
1270,00,98,39
1269,00,98,34
1268,00,98,28
1267,00,98,23
1266,00,98,17
1265,00,98,11
1264,00,98,04
1263,00,97,98
1262,00,97,91
1261,00,97,84
1260,00,97,75
1259,00,97,66
1258,00,97,57
1257,00,97,48
1256,00,97,38
1255,00,97,28
1254,00,97,17
1253,00,97,05
1252,00,96,92
1251,00,96,78
1250,00,96,65
1249,00,96,51
1248,00,96,36
1247,00,96,19
1246,00,96,02
1245,00,95,85
1244,00,95,68
1243,00,95,52
1242,00,95,37
1241,00,95,20
1240,00,95,02
1239,00,94,82
1238,00,94,63
1237,00,94,44
1236,00,94,24
1235,00,94,05
1234,00,93,87
1233,00,93,67
1232,00,93,45
1231,00,93,25
1230,00,93,06
1229,00,92,86
1228,00,92,64
1227,00,92,42
1226,00,92,22
1225,00,92,02
1224,00,91,82
1223,00,91,64
1222,00,91,46
1221,00,91,28
1220,00,91,08
1219,00,90,90
1218,00,90,73
1217,00,90,55
1216,00,90,35
1215,00,90,16
1214,00,90,00
1213,00,89,83
1212,00,89,65
1211,00,89,48
1210,00,89,32
1209,00,89,16
1208,00,88,99
1207,00,88,83
1206,00,88,67
1205,00,88,53
1204,00,88,37
1203,00,88,23
1202,00,88,10
1201,00,87,95
1200,00,87,79
1199,00,87,63
1198,00,87,49
1197,00,87,34
1196,00,87,19
1195,00,87,05
1194,00,86,92
1193,00,86,79
1192,00,86,64
1191,00,86,50
1190,00,86,39
1189,00,86,27
1188,00,86,14
1187,00,86,01
1186,00,85,88
1185,00,85,74
1184,00,85,59
1183,00,85,45
1182,00,85,33
1181,00,85,19
1180,00,85,05
1179,00,84,92
1178,00,84,80
1177,00,84,68
1176,00,84,55
1175,00,84,42
1174,00,84,29
1173,00,84,16
1172,00,84,03
1171,00,83,91
1170,00,83,80
1169,00,83,66
1168,00,83,51
1167,00,83,38
1166,00,83,29
1165,00,83,18
1164,00,83,04
1163,00,82,91
1162,00,82,78
1161,00,82,65
1160,00,82,52
1159,00,82,39
1158,00,82,29
1157,00,82,17
1156,00,82,02
1155,00,81,90
1154,00,81,79
1153,00,81,68
1152,00,81,54
1151,00,81,41
1150,00,81,30
1149,00,81,19
1148,00,81,06
1147,00,80,95
1146,00,80,85
1145,00,80,74
1144,00,80,59
1143,00,80,44
1142,00,80,33
1141,00,80,20
1140,00,80,07
1139,00,79,94
1138,00,79,83
1137,00,79,71
1136,00,79,56
1135,00,79,41
1134,00,79,29
1133,00,79,17
1132,00,79,03
1131,00,78,89
1130,00,78,74
1129,00,78,58
1128,00,78,40
1127,00,78,24
1126,00,78,09
1125,00,77,90
1124,00,77,68
1123,00,77,47
1122,00,77,28
1121,00,77,07
1120,00,76,83
1119,00,76,60
1118,00,76,37
1117,00,76,10
1116,00,75,78
1115,00,75,44
1114,00,75,11
1113,00,74,76
1112,00,74,38
1111,00,73,99
1110,00,73,62
1109,00,73,23
1108,00,72,82
1107,00,72,42
1106,00,72,04
1105,00,71,66
1104,00,71,26
1103,00,70,89
1102,00,70,58
1101,00,70,29
1100,00,70,01
1099,00,69,78
1098,00,69,60
1097,00,69,44
1096,00,69,27
1095,00,69,13
1094,00,69,05
1093,00,68,96
1092,00,68,85
1091,00,68,77
1090,00,68,73
1089,00,68,67
1088,00,68,58
1087,00,68,52
1086,00,68,48
1085,00,68,42
1084,00,68,32
1083,00,68,23
1082,00,68,15
1081,00,68,06
1080,00,67,94
1079,00,67,85
1078,00,67,80
1077,00,67,71
1076,00,67,58
1075,00,67,48
1074,00,67,41
1073,00,67,33
1072,00,67,21
1071,00,67,11
1070,00,67,02
1069,00,66,89
1068,00,66,74
1067,00,66,62
1066,00,66,53
1065,00,66,40
1064,00,66,24
1063,00,66,11
1062,00,66,02
1061,00,65,91
1060,00,65,77
1059,00,65,63
1058,00,65,54
1057,00,65,42
1056,00,65,27
1055,00,65,14
1054,00,65,04
1053,00,64,93
1052,00,64,77
1051,00,64,64
1050,00,64,55
1049,00,64,46
1048,00,64,34
1047,00,64,24
1046,00,64,17
1045,00,64,08
1044,00,63,97
1043,00,63,87
1042,00,63,81
1041,00,63,75
1040,00,63,66
1039,00,63,59
1038,00,63,55
1037,00,63,50
1036,00,63,45
1035,00,63,43
1034,00,63,44
1033,00,63,42
1032,00,63,38
1031,00,63,38
1030,00,63,43
1029,00,63,46
1028,00,63,46
1027,00,63,48
1026,00,63,56
1025,00,63,63
1024,00,63,68
1023,00,63,76
1022,00,63,88
1021,00,63,99
1020,00,64,06
1019,00,64,16
1018,00,64,29
1017,00,64,41
1016,00,64,50
1015,00,64,61
1014,00,64,76
1013,00,64,89
1012,00,64,99
1011,00,65,10
1010,00,65,23
1009,00,65,34
1008,00,65,41
1007,00,65,49
1006,00,65,59
1005,00,65,67
1004,00,65,73
1003,00,65,80
1002,00,65,90
1001,00,65,97
1000,00,66,01
999,00,66,05
998,00,66,11
997,00,66,14
996,00,66,14
995,00,66,15
994,00,66,19
993,00,66,22
992,00,66,22
991,00,66,22
990,00,66,24
989,00,66,23
988,00,66,19
987,00,66,16
986,00,66,15
985,00,66,13
984,00,66,07
983,00,66,02
982,00,66,00
981,00,65,95
980,00,65,88
979,00,65,82
978,00,65,78
977,00,65,71
976,00,65,61
975,00,65,51
974,00,65,44
973,00,65,35
972,00,65,23
971,00,65,12
970,00,65,02
969,00,64,90
968,00,64,75
967,00,64,62
966,00,64,52
965,00,64,40
964,00,64,23
963,00,64,08
962,00,63,96
961,00,63,82
960,00,63,66
959,00,63,51
958,00,63,38
957,00,63,25
956,00,63,09
955,00,62,96
954,00,62,84
953,00,62,69
952,00,62,52
951,00,62,38
950,00,62,27
949,00,62,15
948,00,61,99
947,00,61,86
946,00,61,76
945,00,61,64
944,00,61,48
943,00,61,33
942,00,61,23
941,00,61,12
940,00,60,98
939,00,60,87
938,00,60,78
937,00,60,67
936,00,60,51
935,00,60,36
934,00,60,25
933,00,60,14
932,00,60,02
931,00,59,92
930,00,59,83
929,00,59,72
928,00,59,58
927,00,59,46
926,00,59,39
925,00,59,28
924,00,59,13
923,00,59,01
922,00,58,94
921,00,58,86
920,00,58,75
919,00,58,66
918,00,58,59
917,00,58,51
916,00,58,39
915,00,58,32
914,00,58,29
913,00,58,23
912,00,58,14
911,00,58,07
910,00,58,04
909,00,57,99
908,00,57,90
907,00,57,84
906,00,57,82
905,00,57,79
904,00,57,72
903,00,57,68
902,00,57,67
901,00,57,65
900,00,57,60
899,00,57,59
898,00,57,63
897,00,57,64
896,00,57,62
895,00,57,62
894,00,57,66
893,00,57,69
892,00,57,69
891,00,57,74
890,00,57,83
889,00,57,90
888,00,57,93
887,00,57,99
886,00,58,12
885,00,58,24
884,00,58,32
883,00,58,44
882,00,58,60
881,00,58,76
880,00,58,89
879,00,59,07
878,00,59,31
877,00,59,54
876,00,59,75
875,00,60,01
874,00,60,36
873,00,60,70
872,00,61,01
871,00,61,36
870,00,61,77
869,00,62,20
868,00,62,62
867,00,63,07
866,00,63,56
865,00,64,01
864,00,64,42
863,00,64,88
862,00,65,38
861,00,65,86
860,00,66,32
859,00,66,82
858,00,67,36
857,00,67,89
856,00,68,36
855,00,68,85
854,00,69,39
853,00,69,91
852,00,70,38
851,00,70,85
850,00,71,36
849,00,71,85
848,00,72,29
847,00,72,72
846,00,73,14
845,00,73,52
844,00,73,86
843,00,74,20
842,00,74,56
841,00,74,88
840,00,75,13
839,00,75,37
838,00,75,59
837,00,75,75
836,00,75,83
835,00,75,90
834,00,75,99
833,00,76,05
832,00,76,07
831,00,76,08
830,00,76,08
829,00,76,04
828,00,75,94
827,00,75,84
826,00,75,76
825,00,75,67
824,00,75,53
823,00,75,37
822,00,75,23
821,00,75,07
820,00,74,87
819,00,74,67
818,00,74,51
817,00,74,33
816,00,74,12
815,00,73,92
814,00,73,74
813,00,73,55
812,00,73,33
811,00,73,13
810,00,72,94
809,00,72,72
808,00,72,47
807,00,72,25
806,00,72,09
805,00,71,93
804,00,71,73
803,00,71,52
802,00,71,33
801,00,71,13
800,00,70,93
799,00,70,76
798,00,70,62
797,00,70,45
796,00,70,24
795,00,70,05
794,00,69,91
793,00,69,76
792,00,69,59
791,00,69,44
790,00,69,33
789,00,69,19
788,00,69,04
787,00,68,93
786,00,68,87
785,00,68,80
784,00,68,70
783,00,68,62
782,00,68,59
781,00,68,57
780,00,68,52
779,00,68,48
778,00,68,47
777,00,68,45
776,00,68,42
775,00,68,45
774,00,68,52
773,00,68,58
772,00,68,58
771,00,68,60
770,00,68,67
769,00,68,72
768,00,68,73
767,00,68,76
766,00,68,83
765,00,68,89
764,00,68,91
763,00,68,91
762,00,68,94
761,00,68,97
760,00,69,00
759,00,69,04
758,00,69,10
757,00,69,13
756,00,69,14
755,00,69,17
754,00,69,25
753,00,69,30
752,00,69,32
751,00,69,35
750,00,69,42
749,00,69,49
748,00,69,53
747,00,69,59
746,00,69,68
745,00,69,76
744,00,69,80
743,00,69,84
742,00,69,92
741,00,69,98
740,00,69,99
739,00,70,02
738,00,70,08
737,00,70,16
736,00,70,22
735,00,70,31
734,00,70,45
733,00,70,58
732,00,70,67
731,00,70,77
730,00,70,89
729,00,70,99
728,00,71,05
727,00,71,13
726,00,71,23
725,00,71,31
724,00,71,35
723,00,71,42
722,00,71,54
721,00,71,64
720,00,71,68
719,00,71,72
718,00,71,82
717,00,71,92
716,00,72,01
715,00,72,12
714,00,72,24
713,00,72,33
712,00,72,36
711,00,72,39
710,00,72,46
709,00,72,51
708,00,72,54
707,00,72,60
706,00,72,70
705,00,72,78
704,00,72,82
703,00,72,88
702,00,73,00
701,00,73,09
700,00,73,14
699,00,73,18
698,00,73,27
697,00,73,37
696,00,73,42
695,00,73,48
694,00,73,58
693,00,73,65
692,00,73,70
691,00,73,76
690,00,73,85
689,00,73,92
688,00,73,95
687,00,74,01
686,00,74,11
685,00,74,19
684,00,74,20
683,00,74,23
682,00,74,31
681,00,74,35
680,00,74,35
679,00,74,39
678,00,74,50
677,00,74,60
676,00,74,67
675,00,74,75
674,00,74,86
673,00,74,95
672,00,75,01
671,00,75,16
670,00,75,39
669,00,75,44
668,00,75,07
667,00,74,86
666,00,75,05
665,00,75,29
664,00,75,43
663,00,75,52
662,00,75,63
661,00,75,70
660,00,75,69
659,00,75,70
658,00,75,82
657,00,75,93
656,00,75,94
655,00,75,97
654,00,76,11
653,00,76,26
652,00,76,29
651,00,76,25
650,00,76,29
