Created as New Dataset,Sample 004 By User Date Wednesday, March 05 2025
cm-1,%T
4000,00,100,03
3999,00,100,04
3998,00,100,05
3997,00,100,06
3996,00,100,06
3995,00,100,05
3994,00,100,04
3993,00,100,04
3992,00,100,05
3991,00,100,06
3990,00,100,06
3989,00,100,05
3988,00,100,05
3987,00,100,04
3986,00,100,04
3985,00,100,04
3984,00,100,04
3983,00,100,03
3982,00,100,04
3981,00,100,04
3980,00,100,04
3979,00,100,04
3978,00,100,03
3977,00,100,02
3976,00,100,01
3975,00,100,01
3974,00,100,01
3973,00,100,02
3972,00,100,03
3971,00,100,03
3970,00,100,03
3969,00,100,03
3968,00,100,03
3967,00,100,04
3966,00,100,05
3965,00,100,05
3964,00,100,05
3963,00,100,05
3962,00,100,04
3961,00,100,04
3960,00,100,04
3959,00,100,04
3958,00,100,04
3957,00,100,04
3956,00,100,04
3955,00,100,04
3954,00,100,04
3953,00,100,03
3952,00,100,03
3951,00,100,02
3950,00,100,02
3949,00,100,03
3948,00,100,03
3947,00,100,04
3946,00,100,04
3945,00,100,04
3944,00,100,03
3943,00,100,02
3942,00,100,03
3941,00,100,04
3940,00,100,05
3939,00,100,05
3938,00,100,05
3937,00,100,05
3936,00,100,04
3935,00,100,03
3934,00,100,02
3933,00,100,02
3932,00,100,03
3931,00,100,03
3930,00,100,02
3929,00,100,01
3928,00,100,01
3927,00,100,01
3926,00,100,02
3925,00,100,03
3924,00,100,03
3923,00,100,04
3922,00,100,04
3921,00,100,04
3920,00,100,03
3919,00,100,03
3918,00,100,03
3917,00,100,03
3916,00,100,04
3915,00,100,04
3914,00,100,04
3913,00,100,04
3912,00,100,04
3911,00,100,05
3910,00,100,06
3909,00,100,06
3908,00,100,06
3907,00,100,05
3906,00,100,05
3905,00,100,05
3904,00,100,07
3903,00,100,10
3902,00,100,11
3901,00,100,08
3900,00,100,05
3899,00,100,02
3898,00,100,01
3897,00,100,02
3896,00,100,03
3895,00,100,04
3894,00,100,04
3893,00,100,05
3892,00,100,05
3891,00,100,07
3890,00,100,08
3889,00,100,08
3888,00,100,06
3887,00,100,05
3886,00,100,04
3885,00,100,04
3884,00,100,04
3883,00,100,04
3882,00,100,03
3881,00,100,03
3880,00,100,04
3879,00,100,05
3878,00,100,05
3877,00,100,04
3876,00,100,03
3875,00,100,03
3874,00,100,04
3873,00,100,05
3872,00,100,05
3871,00,100,04
3870,00,100,04
3869,00,100,06
3868,00,100,08
3867,00,100,07
3866,00,100,06
3865,00,100,05
3864,00,100,05
3863,00,100,05
3862,00,100,04
3861,00,100,05
3860,00,100,06
3859,00,100,07
3858,00,100,08
3857,00,100,08
3856,00,100,07
3855,00,100,07
3854,00,100,07
3853,00,100,08
3852,00,100,08
3851,00,100,07
3850,00,100,06
3849,00,100,05
3848,00,100,06
3847,00,100,07
3846,00,100,07
3845,00,100,06
3844,00,100,05
3843,00,100,05
3842,00,100,06
3841,00,100,06
3840,00,100,06
3839,00,100,06
3838,00,100,05
3837,00,100,05
3836,00,100,05
3835,00,100,05
3834,00,100,04
3833,00,100,04
3832,00,100,04
3831,00,100,04
3830,00,100,04
3829,00,100,03
3828,00,100,03
3827,00,100,03
3826,00,100,04
3825,00,100,06
3824,00,100,07
3823,00,100,07
3822,00,100,07
3821,00,100,07
3820,00,100,08
3819,00,100,08
3818,00,100,06
3817,00,100,04
3816,00,100,04
3815,00,100,05
3814,00,100,06
3813,00,100,06
3812,00,100,06
3811,00,100,06
3810,00,100,07
3809,00,100,06
3808,00,100,04
3807,00,100,03
3806,00,100,04
3805,00,100,05
3804,00,100,04
3803,00,100,02
3802,00,100,01
3801,00,100,02
3800,00,100,04
3799,00,100,03
3798,00,100,02
3797,00,100,01
3796,00,100,02
3795,00,100,03
3794,00,100,03
3793,00,100,02
3792,00,100,01
3791,00,100,01
3790,00,100,00
3789,00,99,99
3788,00,99,99
3787,00,99,99
3786,00,100,00
3785,00,100,02
3784,00,100,04
3783,00,100,04
3782,00,100,04
3781,00,100,02
3780,00,100,01
3779,00,100,01
3778,00,100,01
3777,00,100,01
3776,00,100,00
3775,00,99,99
3774,00,99,99
3773,00,100,00
3772,00,100,01
3771,00,100,02
3770,00,100,03
3769,00,100,04
3768,00,100,05
3767,00,100,04
3766,00,100,03
3765,00,100,03
3764,00,100,03
3763,00,100,04
3762,00,100,04
3761,00,100,04
3760,00,100,04
3759,00,100,04
3758,00,100,03
3757,00,100,01
3756,00,100,01
3755,00,100,01
3754,00,100,01
3753,00,100,03
3752,00,100,06
3751,00,100,07
3750,00,100,07
3749,00,100,07
3748,00,100,07
3747,00,100,06
3746,00,100,06
3745,00,100,06
3744,00,100,08
3743,00,100,09
3742,00,100,07
3741,00,100,03
3740,00,100,01
3739,00,100,01
3738,00,100,02
3737,00,100,03
3736,00,100,04
3735,00,100,05
3734,00,100,04
3733,00,100,02
3732,00,100,01
3731,00,100,02
3730,00,100,03
3729,00,100,03
3728,00,100,02
3727,00,100,02
3726,00,100,03
3725,00,100,02
3724,00,100,01
3723,00,99,99
3722,00,99,99
3721,00,99,99
3720,00,99,99
3719,00,99,99
3718,00,99,98
3717,00,99,97
3716,00,99,97
3715,00,99,95
3714,00,99,94
3713,00,99,95
3712,00,99,96
3711,00,99,98
3710,00,99,99
3709,00,99,96
3708,00,99,93
3707,00,99,90
3706,00,99,88
3705,00,99,88
3704,00,99,88
3703,00,99,87
3702,00,99,86
3701,00,99,84
3700,00,99,83
3699,00,99,81
3698,00,99,80
3697,00,99,79
3696,00,99,79
3695,00,99,79
3694,00,99,79
3693,00,99,77
3692,00,99,75
3691,00,99,73
3690,00,99,70
3689,00,99,67
3688,00,99,66
3687,00,99,65
3686,00,99,63
3685,00,99,61
3684,00,99,59
3683,00,99,58
3682,00,99,58
3681,00,99,58
3680,00,99,58
3679,00,99,59
3678,00,99,58
3677,00,99,55
3676,00,99,52
3675,00,99,50
3674,00,99,50
3673,00,99,49
3672,00,99,46
3671,00,99,43
3670,00,99,41
3669,00,99,39
3668,00,99,37
3667,00,99,35
3666,00,99,33
3665,00,99,32
3664,00,99,32
3663,00,99,31
3662,00,99,31
3661,00,99,30
3660,00,99,30
3659,00,99,30
3658,00,99,29
3657,00,99,28
3656,00,99,27
3655,00,99,27
3654,00,99,27
3653,00,99,27
3652,00,99,27
3651,00,99,27
3650,00,99,26
3649,00,99,24
3648,00,99,21
3647,00,99,19
3646,00,99,18
3645,00,99,18
3644,00,99,17
3643,00,99,16
3642,00,99,14
3641,00,99,13
3640,00,99,12
3639,00,99,11
3638,00,99,11
3637,00,99,12
3636,00,99,12
3635,00,99,13
3634,00,99,14
3633,00,99,14
3632,00,99,14
3631,00,99,12
3630,00,99,10
3629,00,99,08
3628,00,99,08
3627,00,99,08
3626,00,99,08
3625,00,99,07
3624,00,99,07
3623,00,99,08
3622,00,99,08
3621,00,99,07
3620,00,99,05
3619,00,99,03
3618,00,99,03
3617,00,99,04
3616,00,99,05
3615,00,99,05
3614,00,99,04
3613,00,99,04
3612,00,99,05
3611,00,99,05
3610,00,99,05
3609,00,99,05
3608,00,99,06
3607,00,99,07
3606,00,99,08
3605,00,99,06
3604,00,99,05
3603,00,99,04
3602,00,99,04
3601,00,99,04
3600,00,99,04
3599,00,99,04
3598,00,99,03
3597,00,99,02
3596,00,99,01
3595,00,99,01
3594,00,99,01
3593,00,99,00
3592,00,98,99
3591,00,98,98
3590,00,98,96
3589,00,98,95
3588,00,98,95
3587,00,98,94
3586,00,98,94
3585,00,98,93
3584,00,98,92
3583,00,98,92
3582,00,98,93
3581,00,98,93
3580,00,98,93
3579,00,98,92
3578,00,98,91
3577,00,98,90
3576,00,98,89
3575,00,98,89
3574,00,98,89
3573,00,98,90
3572,00,98,91
3571,00,98,92
3570,00,98,93
3569,00,98,93
3568,00,98,91
3567,00,98,89
3566,00,98,88
3565,00,98,87
3564,00,98,86
3563,00,98,85
3562,00,98,84
3561,00,98,83
3560,00,98,83
3559,00,98,83
3558,00,98,83
3557,00,98,82
3556,00,98,80
3555,00,98,79
3554,00,98,79
3553,00,98,79
3552,00,98,79
3551,00,98,78
3550,00,98,77
3549,00,98,77
3548,00,98,76
3547,00,98,76
3546,00,98,74
3545,00,98,72
3544,00,98,69
3543,00,98,68
3542,00,98,68
3541,00,98,69
3540,00,98,70
3539,00,98,70
3538,00,98,68
3537,00,98,66
3536,00,98,64
3535,00,98,63
3534,00,98,63
3533,00,98,62
3532,00,98,61
3531,00,98,60
3530,00,98,59
3529,00,98,59
3528,00,98,60
3527,00,98,60
3526,00,98,59
3525,00,98,58
3524,00,98,56
3523,00,98,55
3522,00,98,54
3521,00,98,52
3520,00,98,51
3519,00,98,50
3518,00,98,49
3517,00,98,48
3516,00,98,46
3515,00,98,46
3514,00,98,46
3513,00,98,46
3512,00,98,45
3511,00,98,43
3510,00,98,42
3509,00,98,40
3508,00,98,40
3507,00,98,40
3506,00,98,40
3505,00,98,39
3504,00,98,37
3503,00,98,35
3502,00,98,35
3501,00,98,35
3500,00,98,36
3499,00,98,35
3498,00,98,34
3497,00,98,33
3496,00,98,31
3495,00,98,30
3494,00,98,29
3493,00,98,29
3492,00,98,28
3491,00,98,27
3490,00,98,26
3489,00,98,24
3488,00,98,23
3487,00,98,22
3486,00,98,22
3485,00,98,22
3484,00,98,22
3483,00,98,21
3482,00,98,20
3481,00,98,19
3480,00,98,18
3479,00,98,18
3478,00,98,17
3477,00,98,16
3476,00,98,15
3475,00,98,14
3474,00,98,13
3473,00,98,12
3472,00,98,11
3471,00,98,12
3470,00,98,12
3469,00,98,11
3468,00,98,10
3467,00,98,08
3466,00,98,07
3465,00,98,07
3464,00,98,08
3463,00,98,09
3462,00,98,08
3461,00,98,06
3460,00,98,04
3459,00,98,02
3458,00,98,00
3457,00,97,98
3456,00,97,96
3455,00,97,95
3454,00,97,95
3453,00,97,94
3452,00,97,93
3451,00,97,92
3450,00,97,91
3449,00,97,91
3448,00,97,91
3447,00,97,91
3446,00,97,91
3445,00,97,91
3444,00,97,91
3443,00,97,90
3442,00,97,90
3441,00,97,89
3440,00,97,87
3439,00,97,86
3438,00,97,84
3437,00,97,84
3436,00,97,85
3435,00,97,86
3434,00,97,86
3433,00,97,85
3432,00,97,83
3431,00,97,82
3430,00,97,81
3429,00,97,80
3428,00,97,78
3427,00,97,78
3426,00,97,77
3425,00,97,76
3424,00,97,75
3423,00,97,75
3422,00,97,76
3421,00,97,76
3420,00,97,76
3419,00,97,75
3418,00,97,73
3417,00,97,71
3416,00,97,69
3415,00,97,68
3414,00,97,68
3413,00,97,67
3412,00,97,67
3411,00,97,66
3410,00,97,65
3409,00,97,63
3408,00,97,61
3407,00,97,61
3406,00,97,61
3405,00,97,62
3404,00,97,62
3403,00,97,61
3402,00,97,61
3401,00,97,61
3400,00,97,60
3399,00,97,59
3398,00,97,58
3397,00,97,57
3396,00,97,57
3395,00,97,56
3394,00,97,55
3393,00,97,54
3392,00,97,53
3391,00,97,52
3390,00,97,51
3389,00,97,50
3388,00,97,48
3387,00,97,48
3386,00,97,48
3385,00,97,49
3384,00,97,49
3383,00,97,48
3382,00,97,46
3381,00,97,45
3380,00,97,44
3379,00,97,44
3378,00,97,44
3377,00,97,45
3376,00,97,45
3375,00,97,45
3374,00,97,43
3373,00,97,41
3372,00,97,40
3371,00,97,38
3370,00,97,37
3369,00,97,37
3368,00,97,37
3367,00,97,37
3366,00,97,37
3365,00,97,35
3364,00,97,34
3363,00,97,33
3362,00,97,34
3361,00,97,35
3360,00,97,36
3359,00,97,36
3358,00,97,36
3357,00,97,35
3356,00,97,35
3355,00,97,34
3354,00,97,33
3353,00,97,33
3352,00,97,32
3351,00,97,31
3350,00,97,31
3349,00,97,31
3348,00,97,31
3347,00,97,31
3346,00,97,31
3345,00,97,31
3344,00,97,31
3343,00,97,31
3342,00,97,30
3341,00,97,30
3340,00,97,29
3339,00,97,28
3338,00,97,27
3337,00,97,26
3336,00,97,26
3335,00,97,26
3334,00,97,27
3333,00,97,27
3332,00,97,27
3331,00,97,26
3330,00,97,25
3329,00,97,25
3328,00,97,24
3327,00,97,24
3326,00,97,24
3325,00,97,23
3324,00,97,23
3323,00,97,23
3322,00,97,23
3321,00,97,22
3320,00,97,22
3319,00,97,22
3318,00,97,22
3317,00,97,22
3316,00,97,22
3315,00,97,22
3314,00,97,22
3313,00,97,22
3312,00,97,22
3311,00,97,21
3310,00,97,19
3309,00,97,18
3308,00,97,16
3307,00,97,16
3306,00,97,16
3305,00,97,17
3304,00,97,17
3303,00,97,17
3302,00,97,16
3301,00,97,15
3300,00,97,15
3299,00,97,15
3298,00,97,16
3297,00,97,16
3296,00,97,15
3295,00,97,15
3294,00,97,15
3293,00,97,16
3292,00,97,16
3291,00,97,16
3290,00,97,16
3289,00,97,15
3288,00,97,14
3287,00,97,13
3286,00,97,13
3285,00,97,12
3284,00,97,12
3283,00,97,13
3282,00,97,15
3281,00,97,16
3280,00,97,16
3279,00,97,15
3278,00,97,15
3277,00,97,14
3276,00,97,13
3275,00,97,13
3274,00,97,13
3273,00,97,14
3272,00,97,14
3271,00,97,14
3270,00,97,14
3269,00,97,14
3268,00,97,14
3267,00,97,14
3266,00,97,14
3265,00,97,13
3264,00,97,12
3263,00,97,12
3262,00,97,12
3261,00,97,11
3260,00,97,11
3259,00,97,11
3258,00,97,11
3257,00,97,12
3256,00,97,12
3255,00,97,12
3254,00,97,11
3253,00,97,11
3252,00,97,11
3251,00,97,11
3250,00,97,12
3249,00,97,12
3248,00,97,12
3247,00,97,13
3246,00,97,14
3245,00,97,15
3244,00,97,14
3243,00,97,13
3242,00,97,12
3241,00,97,12
3240,00,97,11
3239,00,97,12
3238,00,97,12
3237,00,97,12
3236,00,97,12
3235,00,97,12
3234,00,97,13
3233,00,97,15
3232,00,97,16
3231,00,97,16
3230,00,97,15
3229,00,97,15
3228,00,97,15
3227,00,97,15
3226,00,97,16
3225,00,97,16
3224,00,97,17
3223,00,97,17
3222,00,97,17
3221,00,97,17
3220,00,97,18
3219,00,97,19
3218,00,97,19
3217,00,97,20
3216,00,97,20
3215,00,97,20
3214,00,97,20
3213,00,97,21
3212,00,97,23
3211,00,97,24
3210,00,97,25
3209,00,97,24
3208,00,97,24
3207,00,97,24
3206,00,97,25
3205,00,97,26
3204,00,97,26
3203,00,97,27
3202,00,97,27
3201,00,97,27
3200,00,97,26
3199,00,97,25
3198,00,97,26
3197,00,97,27
3196,00,97,28
3195,00,97,29
3194,00,97,29
3193,00,97,28
3192,00,97,28
3191,00,97,28
3190,00,97,29
3189,00,97,29
3188,00,97,30
3187,00,97,30
3186,00,97,30
3185,00,97,32
3184,00,97,34
3183,00,97,35
3182,00,97,35
3181,00,97,35
3180,00,97,35
3179,00,97,36
3178,00,97,36
3177,00,97,37
3176,00,97,37
3175,00,97,37
3174,00,97,38
3173,00,97,38
3172,00,97,39
3171,00,97,39
3170,00,97,40
3169,00,97,40
3168,00,97,41
3167,00,97,41
3166,00,97,41
3165,00,97,41
3164,00,97,41
3163,00,97,42
3162,00,97,43
3161,00,97,44
3160,00,97,45
3159,00,97,45
3158,00,97,45
3157,00,97,46
3156,00,97,46
3155,00,97,47
3154,00,97,48
3153,00,97,48
3152,00,97,48
3151,00,97,49
3150,00,97,50
3149,00,97,51
3148,00,97,51
3147,00,97,52
3146,00,97,53
3145,00,97,55
3144,00,97,56
3143,00,97,57
3142,00,97,57
3141,00,97,58
3140,00,97,58
3139,00,97,58
3138,00,97,58
3137,00,97,59
3136,00,97,60
3135,00,97,62
3134,00,97,64
3133,00,97,65
3132,00,97,66
3131,00,97,66
3130,00,97,66
3129,00,97,66
3128,00,97,66
3127,00,97,67
3126,00,97,67
3125,00,97,68
3124,00,97,68
3123,00,97,68
3122,00,97,69
3121,00,97,70
3120,00,97,71
3119,00,97,72
3118,00,97,73
3117,00,97,75
3116,00,97,76
3115,00,97,76
3114,00,97,76
3113,00,97,76
3112,00,97,76
3111,00,97,77
3110,00,97,78
3109,00,97,78
3108,00,97,79
3107,00,97,80
3106,00,97,81
3105,00,97,83
3104,00,97,84
3103,00,97,84
3102,00,97,84
3101,00,97,83
3100,00,97,84
3099,00,97,85
3098,00,97,86
3097,00,97,87
3096,00,97,88
3095,00,97,88
3094,00,97,89
3093,00,97,89
3092,00,97,89
3091,00,97,89
3090,00,97,89
3089,00,97,89
3088,00,97,90
3087,00,97,92
3086,00,97,93
3085,00,97,95
3084,00,97,96
3083,00,97,97
3082,00,97,97
3081,00,97,98
3080,00,97,98
3079,00,97,99
3078,00,97,99
3077,00,98,00
3076,00,98,00
3075,00,98,01
3074,00,98,02
3073,00,98,02
3072,00,98,03
3071,00,98,03
3070,00,98,03
3069,00,98,05
3068,00,98,06
3067,00,98,06
3066,00,98,06
3065,00,98,07
3064,00,98,07
3063,00,98,07
3062,00,98,08
3061,00,98,09
3060,00,98,10
3059,00,98,11
3058,00,98,11
3057,00,98,12
3056,00,98,13
3055,00,98,14
3054,00,98,14
3053,00,98,14
3052,00,98,14
3051,00,98,15
3050,00,98,16
3049,00,98,16
3048,00,98,17
3047,00,98,19
3046,00,98,20
3045,00,98,21
3044,00,98,22
3043,00,98,22
3042,00,98,22
3041,00,98,22
3040,00,98,22
3039,00,98,23
3038,00,98,23
3037,00,98,24
3036,00,98,25
3035,00,98,25
3034,00,98,25
3033,00,98,25
3032,00,98,25
3031,00,98,26
3030,00,98,27
3029,00,98,28
3028,00,98,28
3027,00,98,29
3026,00,98,30
3025,00,98,31
3024,00,98,31
3023,00,98,31
3022,00,98,31
3021,00,98,31
3020,00,98,31
3019,00,98,31
3018,00,98,32
3017,00,98,33
3016,00,98,33
3015,00,98,34
3014,00,98,35
3013,00,98,36
3012,00,98,38
3011,00,98,39
3010,00,98,39
3009,00,98,40
3008,00,98,41
3007,00,98,42
3006,00,98,43
3005,00,98,44
3004,00,98,44
3003,00,98,46
3002,00,98,48
3001,00,98,50
3000,00,98,53
2999,00,98,54
2998,00,98,54
2997,00,98,54
2996,00,98,53
2995,00,98,52
2994,00,98,51
2993,00,98,50
2992,00,98,49
2991,00,98,48
2990,00,98,47
2989,00,98,46
2988,00,98,45
2987,00,98,45
2986,00,98,44
2985,00,98,46
2984,00,98,49
2983,00,98,52
2982,00,98,54
2981,00,98,51
2980,00,98,44
2979,00,98,34
2978,00,98,25
2977,00,98,17
2976,00,98,11
2975,00,98,06
2974,00,98,03
2973,00,98,02
2972,00,97,99
2971,00,97,95
2970,00,97,89
2969,00,97,83
2968,00,97,80
2967,00,97,78
2966,00,97,78
2965,00,97,78
2964,00,97,79
2963,00,97,80
2962,00,97,83
2961,00,97,87
2960,00,97,92
2959,00,97,97
2958,00,98,01
2957,00,98,05
2956,00,98,07
2955,00,98,09
2954,00,98,10
2953,00,98,11
2952,00,98,11
2951,00,98,11
2950,00,98,10
2949,00,98,10
2948,00,98,09
2947,00,98,07
2946,00,98,06
2945,00,98,05
2944,00,98,04
2943,00,98,04
2942,00,98,04
2941,00,98,04
2940,00,98,04
2939,00,98,04
2938,00,98,05
2937,00,98,07
2936,00,98,10
2935,00,98,13
2934,00,98,15
2933,00,98,18
2932,00,98,20
2931,00,98,23
2930,00,98,25
2929,00,98,28
2928,00,98,31
2927,00,98,34
2926,00,98,35
2925,00,98,36
2924,00,98,38
2923,00,98,41
2922,00,98,43
2921,00,98,46
2920,00,98,48
2919,00,98,51
2918,00,98,53
2917,00,98,55
2916,00,98,57
2915,00,98,59
2914,00,98,61
2913,00,98,63
2912,00,98,66
2911,00,98,69
2910,00,98,71
2909,00,98,73
2908,00,98,73
2907,00,98,74
2906,00,98,75
2905,00,98,77
2904,00,98,77
2903,00,98,78
2902,00,98,79
2901,00,98,81
2900,00,98,83
2899,00,98,85
2898,00,98,85
2897,00,98,86
2896,00,98,86
2895,00,98,86
2894,00,98,86
2893,00,98,86
2892,00,98,87
2891,00,98,87
2890,00,98,85
2889,00,98,82
2888,00,98,77
2887,00,98,73
2886,00,98,70
2885,00,98,67
2884,00,98,62
2883,00,98,58
2882,00,98,55
2881,00,98,53
2880,00,98,51
2879,00,98,50
2878,00,98,50
2877,00,98,52
2876,00,98,55
2875,00,98,59
2874,00,98,63
2873,00,98,67
2872,00,98,71
2871,00,98,74
2870,00,98,78
2869,00,98,81
2868,00,98,83
2867,00,98,85
2866,00,98,88
2865,00,98,90
2864,00,98,92
2863,00,98,94
2862,00,98,95
2861,00,98,97
2860,00,98,99
2859,00,99,00
2858,00,99,01
2857,00,99,01
2856,00,99,01
2855,00,99,02
2854,00,99,04
2853,00,99,06
2852,00,99,07
2851,00,99,08
2850,00,99,08
2849,00,99,09
2848,00,99,11
2847,00,99,13
2846,00,99,14
2845,00,99,15
2844,00,99,16
2843,00,99,17
2842,00,99,18
2841,00,99,19
2840,00,99,20
2839,00,99,20
2838,00,99,21
2837,00,99,21
2836,00,99,22
2835,00,99,23
2834,00,99,25
2833,00,99,26
2832,00,99,26
2831,00,99,26
2830,00,99,26
2829,00,99,26
2828,00,99,26
2827,00,99,27
2826,00,99,28
2825,00,99,29
2824,00,99,30
2823,00,99,31
2822,00,99,32
2821,00,99,32
2820,00,99,32
2819,00,99,31
2818,00,99,31
2817,00,99,32
2816,00,99,33
2815,00,99,34
2814,00,99,35
2813,00,99,36
2812,00,99,36
2811,00,99,37
2810,00,99,37
2809,00,99,37
2808,00,99,37
2807,00,99,38
2806,00,99,38
2805,00,99,38
2804,00,99,39
2803,00,99,39
2802,00,99,40
2801,00,99,40
2800,00,99,40
2799,00,99,40
2798,00,99,41
2797,00,99,41
2796,00,99,41
2795,00,99,42
2794,00,99,42
2793,00,99,43
2792,00,99,43
2791,00,99,43
2790,00,99,42
2789,00,99,42
2788,00,99,43
2787,00,99,43
2786,00,99,44
2785,00,99,45
2784,00,99,45
2783,00,99,45
2782,00,99,44
2781,00,99,44
2780,00,99,44
2779,00,99,45
2778,00,99,46
2777,00,99,46
2776,00,99,46
2775,00,99,47
2774,00,99,47
2773,00,99,48
2772,00,99,48
2771,00,99,48
2770,00,99,47
2769,00,99,47
2768,00,99,47
2767,00,99,48
2766,00,99,48
2765,00,99,48
2764,00,99,49
2763,00,99,49
2762,00,99,49
2761,00,99,49
2760,00,99,49
2759,00,99,49
2758,00,99,50
2757,00,99,51
2756,00,99,52
2755,00,99,52
2754,00,99,51
2753,00,99,51
2752,00,99,51
2751,00,99,51
2750,00,99,51
2749,00,99,51
2748,00,99,51
2747,00,99,51
2746,00,99,51
2745,00,99,51
2744,00,99,51
2743,00,99,51
2742,00,99,51
2741,00,99,52
2740,00,99,53
2739,00,99,54
2738,00,99,54
2737,00,99,54
2736,00,99,54
2735,00,99,54
2734,00,99,53
2733,00,99,53
2732,00,99,53
2731,00,99,53
2730,00,99,53
2729,00,99,54
2728,00,99,55
2727,00,99,56
2726,00,99,56
2725,00,99,57
2724,00,99,57
2723,00,99,57
2722,00,99,57
2721,00,99,57
2720,00,99,56
2719,00,99,56
2718,00,99,56
2717,00,99,57
2716,00,99,57
2715,00,99,58
2714,00,99,57
2713,00,99,57
2712,00,99,57
2711,00,99,58
2710,00,99,59
2709,00,99,60
2708,00,99,60
2707,00,99,59
2706,00,99,59
2705,00,99,59
2704,00,99,59
2703,00,99,60
2702,00,99,60
2701,00,99,61
2700,00,99,62
2699,00,99,62
2698,00,99,62
2697,00,99,61
2696,00,99,61
2695,00,99,61
2694,00,99,61
2693,00,99,61
2692,00,99,62
2691,00,99,63
2690,00,99,63
2689,00,99,64
2688,00,99,64
2687,00,99,64
2686,00,99,64
2685,00,99,64
2684,00,99,64
2683,00,99,63
2682,00,99,64
2681,00,99,64
2680,00,99,64
2679,00,99,64
2678,00,99,64
2677,00,99,64
2676,00,99,65
2675,00,99,65
2674,00,99,65
2673,00,99,64
2672,00,99,64
2671,00,99,64
2670,00,99,64
2669,00,99,64
2668,00,99,64
2667,00,99,64
2666,00,99,64
2665,00,99,65
2664,00,99,66
2663,00,99,67
2662,00,99,67
2661,00,99,67
2660,00,99,67
2659,00,99,68
2658,00,99,68
2657,00,99,68
2656,00,99,68
2655,00,99,68
2654,00,99,68
2653,00,99,68
2652,00,99,68
2651,00,99,68
2650,00,99,68
2649,00,99,69
2648,00,99,69
2647,00,99,70
2646,00,99,70
2645,00,99,70
2644,00,99,70
2643,00,99,70
2642,00,99,70
2641,00,99,69
2640,00,99,69
2639,00,99,69
2638,00,99,70
2637,00,99,71
2636,00,99,71
2635,00,99,71
2634,00,99,71
2633,00,99,72
2632,00,99,72
2631,00,99,72
2630,00,99,71
2629,00,99,71
2628,00,99,70
2627,00,99,70
2626,00,99,70
2625,00,99,70
2624,00,99,70
2623,00,99,71
2622,00,99,71
2621,00,99,72
2620,00,99,73
2619,00,99,74
2618,00,99,74
2617,00,99,72
2616,00,99,71
2615,00,99,70
2614,00,99,71
2613,00,99,72
2612,00,99,73
2611,00,99,73
2610,00,99,73
2609,00,99,73
2608,00,99,72
2607,00,99,73
2606,00,99,75
2605,00,99,76
2604,00,99,76
2603,00,99,76
2602,00,99,75
2601,00,99,74
2600,00,99,73
2599,00,99,73
2598,00,99,73
2597,00,99,74
2596,00,99,75
2595,00,99,76
2594,00,99,76
2593,00,99,76
2592,00,99,75
2591,00,99,75
2590,00,99,76
2589,00,99,77
2588,00,99,77
2587,00,99,78
2586,00,99,78
2585,00,99,77
2584,00,99,77
2583,00,99,77
2582,00,99,77
2581,00,99,77
2580,00,99,76
2579,00,99,76
2578,00,99,75
2577,00,99,75
2576,00,99,76
2575,00,99,76
2574,00,99,76
2573,00,99,76
2572,00,99,76
2571,00,99,76
2570,00,99,77
2569,00,99,78
2568,00,99,78
2567,00,99,78
2566,00,99,78
2565,00,99,78
2564,00,99,78
2563,00,99,78
2562,00,99,78
2561,00,99,77
2560,00,99,76
2559,00,99,76
2558,00,99,77
2557,00,99,77
2556,00,99,77
2555,00,99,77
2554,00,99,77
2553,00,99,77
2552,00,99,77
2551,00,99,77
2550,00,99,78
2549,00,99,79
2548,00,99,79
2547,00,99,79
2546,00,99,78
2545,00,99,78
2544,00,99,77
2543,00,99,77
2542,00,99,77
2541,00,99,79
2540,00,99,81
2539,00,99,82
2538,00,99,81
2537,00,99,80
2536,00,99,79
2535,00,99,78
2534,00,99,78
2533,00,99,79
2532,00,99,80
2531,00,99,81
2530,00,99,82
2529,00,99,82
2528,00,99,81
2527,00,99,79
2526,00,99,78
2525,00,99,78
2524,00,99,78
2523,00,99,79
2522,00,99,81
2521,00,99,82
2520,00,99,83
2519,00,99,82
2518,00,99,81
2517,00,99,79
2516,00,99,79
2515,00,99,80
2514,00,99,80
2513,00,99,80
2512,00,99,79
2511,00,99,80
2510,00,99,81
2509,00,99,81
2508,00,99,81
2507,00,99,80
2506,00,99,80
2505,00,99,80
2504,00,99,80
2503,00,99,81
2502,00,99,82
2501,00,99,82
2500,00,99,82
2499,00,99,81
2498,00,99,81
2497,00,99,81
2496,00,99,83
2495,00,99,84
2494,00,99,83
2493,00,99,82
2492,00,99,81
2491,00,99,81
2490,00,99,80
2489,00,99,80
2488,00,99,80
2487,00,99,80
2486,00,99,81
2485,00,99,81
2484,00,99,82
2483,00,99,82
2482,00,99,84
2481,00,99,85
2480,00,99,85
2479,00,99,84
2478,00,99,82
2477,00,99,81
2476,00,99,81
2475,00,99,82
2474,00,99,82
2473,00,99,82
2472,00,99,81
2471,00,99,81
2470,00,99,81
2469,00,99,80
2468,00,99,79
2467,00,99,79
2466,00,99,80
2465,00,99,81
2464,00,99,81
2463,00,99,81
2462,00,99,80
2461,00,99,80
2460,00,99,80
2459,00,99,81
2458,00,99,81
2457,00,99,81
2456,00,99,81
2455,00,99,82
2454,00,99,83
2453,00,99,83
2452,00,99,83
2451,00,99,83
2450,00,99,84
2449,00,99,84
2448,00,99,83
2447,00,99,82
2446,00,99,81
2445,00,99,81
2444,00,99,81
2443,00,99,82
2442,00,99,82
2441,00,99,82
2440,00,99,82
2439,00,99,81
2438,00,99,81
2437,00,99,80
2436,00,99,80
2435,00,99,80
2434,00,99,79
2433,00,99,79
2432,00,99,78
2431,00,99,78
2430,00,99,79
2429,00,99,80
2428,00,99,81
2427,00,99,81
2426,00,99,81
2425,00,99,81
2424,00,99,81
2423,00,99,81
2422,00,99,81
2421,00,99,80
2420,00,99,79
2419,00,99,79
2418,00,99,79
2417,00,99,80
2416,00,99,81
2415,00,99,81
2414,00,99,80
2413,00,99,79
2412,00,99,80
2411,00,99,81
2410,00,99,81
2409,00,99,82
2408,00,99,82
2407,00,99,81
2406,00,99,82
2405,00,99,82
2404,00,99,81
2403,00,99,81
2402,00,99,80
2401,00,99,79
2400,00,99,79
2399,00,99,79
2398,00,99,79
2397,00,99,80
2396,00,99,80
2395,00,99,81
2394,00,99,81
2393,00,99,80
2392,00,99,80
2391,00,99,79
2390,00,99,80
2389,00,99,80
2388,00,99,82
2387,00,99,83
2386,00,99,85
2385,00,99,86
2384,00,99,87
2383,00,99,89
2382,00,99,89
2381,00,99,88
2380,00,99,86
2379,00,99,81
2378,00,99,78
2377,00,99,75
2376,00,99,73
2375,00,99,73
2374,00,99,76
2373,00,99,80
2372,00,99,84
2371,00,99,87
2370,00,99,87
2369,00,99,85
2368,00,99,82
2367,00,99,81
2366,00,99,82
2365,00,99,81
2364,00,99,79
2363,00,99,79
2362,00,99,82
2361,00,99,85
2360,00,99,88
2359,00,99,91
2358,00,99,92
2357,00,99,89
2356,00,99,81
2355,00,99,75
2354,00,99,73
2353,00,99,71
2352,00,99,70
2351,00,99,75
2350,00,99,81
2349,00,99,84
2348,00,99,82
2347,00,99,77
2346,00,99,78
2345,00,99,83
2344,00,99,86
2343,00,99,88
2342,00,99,87
2341,00,99,85
2340,00,99,82
2339,00,99,80
2338,00,99,80
2337,00,99,81
2336,00,99,81
2335,00,99,83
2334,00,99,84
2333,00,99,82
2332,00,99,80
2331,00,99,80
2330,00,99,82
2329,00,99,83
2328,00,99,85
2327,00,99,87
2326,00,99,90
2325,00,99,89
2324,00,99,87
2323,00,99,85
2322,00,99,85
2321,00,99,86
2320,00,99,87
2319,00,99,88
2318,00,99,89
2317,00,99,88
2316,00,99,86
2315,00,99,85
2314,00,99,85
2313,00,99,86
2312,00,99,87
2311,00,99,88
2310,00,99,89
2309,00,99,90
2308,00,99,90
2307,00,99,90
2306,00,99,89
2305,00,99,87
2304,00,99,87
2303,00,99,88
2302,00,99,89
2301,00,99,89
2300,00,99,89
2299,00,99,88
2298,00,99,88
2297,00,99,88
2296,00,99,88
2295,00,99,87
2294,00,99,86
2293,00,99,85
2292,00,99,84
2291,00,99,83
2290,00,99,83
2289,00,99,83
2288,00,99,83
2287,00,99,84
2286,00,99,84
2285,00,99,82
2284,00,99,80
2283,00,99,78
2282,00,99,78
2281,00,99,78
2280,00,99,78
2279,00,99,77
2278,00,99,76
2277,00,99,75
2276,00,99,75
2275,00,99,76
2274,00,99,77
2273,00,99,78
2272,00,99,77
2271,00,99,76
2270,00,99,76
2269,00,99,77
2268,00,99,78
2267,00,99,77
2266,00,99,76
2265,00,99,76
2264,00,99,75
2263,00,99,75
2262,00,99,76
2261,00,99,77
2260,00,99,77
2259,00,99,77
2258,00,99,77
2257,00,99,75
2256,00,99,74
2255,00,99,75
2254,00,99,76
2253,00,99,77
2252,00,99,77
2251,00,99,75
2250,00,99,74
2249,00,99,73
2248,00,99,73
2247,00,99,74
2246,00,99,76
2245,00,99,77
2244,00,99,77
2243,00,99,78
2242,00,99,77
2241,00,99,75
2240,00,99,74
2239,00,99,75
2238,00,99,77
2237,00,99,79
2236,00,99,79
2235,00,99,78
2234,00,99,78
2233,00,99,78
2232,00,99,78
2231,00,99,77
2230,00,99,77
2229,00,99,78
2228,00,99,79
2227,00,99,81
2226,00,99,82
2225,00,99,81
2224,00,99,81
2223,00,99,81
2222,00,99,82
2221,00,99,82
2220,00,99,81
2219,00,99,78
2218,00,99,74
2217,00,99,70
2216,00,99,68
2215,00,99,69
2214,00,99,72
2213,00,99,73
2212,00,99,73
2211,00,99,73
2210,00,99,74
2209,00,99,76
2208,00,99,78
2207,00,99,80
2206,00,99,82
2205,00,99,82
2204,00,99,81
2203,00,99,82
2202,00,99,86
2201,00,99,87
2200,00,99,84
2199,00,99,78
2198,00,99,74
2197,00,99,74
2196,00,99,76
2195,00,99,79
2194,00,99,83
2193,00,99,86
2192,00,99,86
2191,00,99,84
2190,00,99,80
2189,00,99,75
2188,00,99,72
2187,00,99,71
2186,00,99,73
2185,00,99,77
2184,00,99,81
2183,00,99,84
2182,00,99,86
2181,00,99,85
2180,00,99,82
2179,00,99,77
2178,00,99,73
2177,00,99,72
2176,00,99,75
2175,00,99,81
2174,00,99,84
2173,00,99,85
2172,00,99,84
2171,00,99,84
2170,00,99,82
2169,00,99,77
2168,00,99,71
2167,00,99,70
2166,00,99,72
2165,00,99,73
2164,00,99,72
2163,00,99,71
2162,00,99,72
2161,00,99,73
2160,00,99,75
2159,00,99,75
2158,00,99,74
2157,00,99,69
2156,00,99,63
2155,00,99,60
2154,00,99,63
2153,00,99,68
2152,00,99,70
2151,00,99,72
2150,00,99,73
2149,00,99,72
2148,00,99,70
2147,00,99,68
2146,00,99,67
2145,00,99,67
2144,00,99,67
2143,00,99,67
2142,00,99,69
2141,00,99,70
2140,00,99,71
2139,00,99,73
2138,00,99,75
2137,00,99,76
2136,00,99,74
2135,00,99,73
2134,00,99,73
2133,00,99,74
2132,00,99,74
2131,00,99,72
2130,00,99,72
2129,00,99,74
2128,00,99,75
2127,00,99,74
2126,00,99,72
2125,00,99,71
2124,00,99,72
2123,00,99,72
2122,00,99,72
2121,00,99,72
2120,00,99,71
2119,00,99,70
2118,00,99,70
2117,00,99,70
2116,00,99,71
2115,00,99,71
2114,00,99,71
2113,00,99,71
2112,00,99,70
2111,00,99,69
2110,00,99,69
2109,00,99,71
2108,00,99,71
2107,00,99,71
2106,00,99,69
2105,00,99,67
2104,00,99,66
2103,00,99,66
2102,00,99,67
2101,00,99,68
2100,00,99,68
2099,00,99,68
2098,00,99,67
2097,00,99,67
2096,00,99,68
2095,00,99,70
2094,00,99,71
2093,00,99,72
2092,00,99,70
2091,00,99,68
2090,00,99,67
2089,00,99,67
2088,00,99,68
2087,00,99,70
2086,00,99,70
2085,00,99,68
2084,00,99,67
2083,00,99,68
2082,00,99,70
2081,00,99,70
2080,00,99,68
2079,00,99,65
2078,00,99,63
2077,00,99,63
2076,00,99,65
2075,00,99,67
2074,00,99,67
2073,00,99,67
2072,00,99,67
2071,00,99,67
2070,00,99,66
2069,00,99,65
2068,00,99,65
2067,00,99,68
2066,00,99,70
2065,00,99,70
2064,00,99,67
2063,00,99,66
2062,00,99,66
2061,00,99,65
2060,00,99,64
2059,00,99,65
2058,00,99,69
2057,00,99,73
2056,00,99,74
2055,00,99,72
2054,00,99,71
2053,00,99,68
2052,00,99,63
2051,00,99,60
2050,00,99,59
2049,00,99,62
2048,00,99,64
2047,00,99,64
2046,00,99,65
2045,00,99,66
2044,00,99,66
2043,00,99,66
2042,00,99,65
2041,00,99,63
2040,00,99,61
2039,00,99,59
2038,00,99,60
2037,00,99,63
2036,00,99,67
2035,00,99,69
2034,00,99,70
2033,00,99,71
2032,00,99,72
2031,00,99,70
2030,00,99,66
2029,00,99,62
2028,00,99,60
2027,00,99,61
2026,00,99,60
2025,00,99,56
2024,00,99,53
2023,00,99,54
2022,00,99,57
2021,00,99,60
2020,00,99,62
2019,00,99,61
2018,00,99,60
2017,00,99,59
2016,00,99,57
2015,00,99,57
2014,00,99,56
2013,00,99,54
2012,00,99,50
2011,00,99,45
2010,00,99,42
2009,00,99,43
2008,00,99,47
2007,00,99,52
2006,00,99,57
2005,00,99,58
2004,00,99,57
2003,00,99,55
2002,00,99,54
2001,00,99,53
2000,00,99,53
1999,00,99,53
1998,00,99,52
1997,00,99,52
1996,00,99,52
1995,00,99,51
1994,00,99,49
1993,00,99,46
1992,00,99,46
1991,00,99,47
1990,00,99,47
1989,00,99,47
1988,00,99,45
1987,00,99,45
1986,00,99,44
1985,00,99,43
1984,00,99,42
1983,00,99,41
1982,00,99,40
1981,00,99,40
1980,00,99,43
1979,00,99,47
1978,00,99,50
1977,00,99,50
1976,00,99,47
1975,00,99,46
1974,00,99,45
1973,00,99,46
1972,00,99,48
1971,00,99,50
1970,00,99,51
1969,00,99,48
1968,00,99,44
1967,00,99,42
1966,00,99,41
1965,00,99,39
1964,00,99,35
1963,00,99,32
1962,00,99,30
1961,00,99,31
1960,00,99,33
1959,00,99,35
1958,00,99,36
1957,00,99,36
1956,00,99,35
1955,00,99,35
1954,00,99,37
1953,00,99,39
1952,00,99,39
1951,00,99,39
1950,00,99,38
1949,00,99,36
1948,00,99,34
1947,00,99,34
1946,00,99,35
1945,00,99,34
1944,00,99,33
1943,00,99,32
1942,00,99,33
1941,00,99,34
1940,00,99,34
1939,00,99,33
1938,00,99,32
1937,00,99,31
1936,00,99,30
1935,00,99,31
1934,00,99,31
1933,00,99,30
1932,00,99,28
1931,00,99,27
1930,00,99,29
1929,00,99,33
1928,00,99,36
1927,00,99,37
1926,00,99,35
1925,00,99,32
1924,00,99,31
1923,00,99,32
1922,00,99,33
1921,00,99,33
1920,00,99,32
1919,00,99,32
1918,00,99,32
1917,00,99,31
1916,00,99,31
1915,00,99,32
1914,00,99,32
1913,00,99,31
1912,00,99,29
1911,00,99,27
1910,00,99,25
1909,00,99,25
1908,00,99,26
1907,00,99,27
1906,00,99,29
1905,00,99,30
1904,00,99,30
1903,00,99,30
1902,00,99,30
1901,00,99,27
1900,00,99,25
1899,00,99,23
1898,00,99,22
1897,00,99,20
1896,00,99,18
1895,00,99,16
1894,00,99,17
1893,00,99,18
1892,00,99,19
1891,00,99,19
1890,00,99,19
1889,00,99,18
1888,00,99,18
1887,00,99,17
1886,00,99,17
1885,00,99,15
1884,00,99,13
1883,00,99,11
1882,00,99,10
1881,00,99,08
1880,00,99,08
1879,00,99,08
1878,00,99,09
1877,00,99,10
1876,00,99,10
1875,00,99,09
1874,00,99,07
1873,00,99,06
1872,00,99,05
1871,00,99,05
1870,00,99,05
1869,00,99,04
1868,00,99,04
1867,00,99,05
1866,00,99,07
1865,00,99,07
1864,00,99,07
1863,00,99,06
1862,00,99,07
1861,00,99,07
1860,00,99,06
1859,00,99,05
1858,00,99,04
1857,00,99,04
1856,00,99,04
1855,00,99,04
1854,00,99,05
1853,00,99,04
1852,00,99,03
1851,00,99,04
1850,00,99,05
1849,00,99,05
1848,00,99,05
1847,00,99,06
1846,00,99,06
1845,00,99,05
1844,00,99,05
1843,00,99,07
1842,00,99,09
1841,00,99,09
1840,00,99,09
1839,00,99,10
1838,00,99,10
1837,00,99,10
1836,00,99,10
1835,00,99,11
1834,00,99,11
1833,00,99,11
1832,00,99,10
1831,00,99,09
1830,00,99,10
1829,00,99,12
1828,00,99,13
1827,00,99,14
1826,00,99,14
1825,00,99,14
1824,00,99,13
1823,00,99,13
1822,00,99,13
1821,00,99,13
1820,00,99,14
1819,00,99,14
1818,00,99,15
1817,00,99,14
1816,00,99,13
1815,00,99,12
1814,00,99,13
1813,00,99,14
1812,00,99,14
1811,00,99,14
1810,00,99,15
1809,00,99,16
1808,00,99,15
1807,00,99,15
1806,00,99,15
1805,00,99,15
1804,00,99,14
1803,00,99,13
1802,00,99,13
1801,00,99,14
1800,00,99,14
1799,00,99,14
1798,00,99,14
1797,00,99,13
1796,00,99,13
1795,00,99,13
1794,00,99,14
1793,00,99,14
1792,00,99,14
1791,00,99,14
1790,00,99,15
1789,00,99,15
1788,00,99,15
1787,00,99,14
1786,00,99,14
1785,00,99,15
1784,00,99,16
1783,00,99,16
1782,00,99,15
1781,00,99,15
1780,00,99,15
1779,00,99,16
1778,00,99,18
1777,00,99,18
1776,00,99,17
1775,00,99,16
1774,00,99,15
1773,00,99,14
1772,00,99,14
1771,00,99,14
1770,00,99,14
1769,00,99,14
1768,00,99,13
1767,00,99,12
1766,00,99,12
1765,00,99,13
1764,00,99,13
1763,00,99,13
1762,00,99,13
1761,00,99,13
1760,00,99,13
1759,00,99,13
1758,00,99,12
1757,00,99,12
1756,00,99,12
1755,00,99,11
1754,00,99,10
1753,00,99,09
1752,00,99,09
1751,00,99,09
1750,00,99,10
1749,00,99,10
1748,00,99,09
1747,00,99,08
1746,00,99,07
1745,00,99,07
1744,00,99,06
1743,00,99,06
1742,00,99,06
1741,00,99,06
1740,00,99,06
1739,00,99,05
1738,00,99,04
1737,00,99,04
1736,00,99,03
1735,00,99,04
1734,00,99,05
1733,00,99,06
1732,00,99,06
1731,00,99,05
1730,00,99,05
1729,00,99,05
1728,00,99,05
1727,00,99,06
1726,00,99,06
1725,00,99,05
1724,00,99,04
1723,00,99,04
1722,00,99,04
1721,00,99,04
1720,00,99,03
1719,00,99,02
1718,00,99,03
1717,00,99,02
1716,00,99,01
1715,00,99,00
1714,00,99,02
1713,00,99,02
1712,00,99,02
1711,00,99,01
1710,00,99,01
1709,00,99,00
1708,00,98,99
1707,00,98,98
1706,00,98,97
1705,00,98,96
1704,00,98,96
1703,00,98,96
1702,00,98,96
1701,00,98,95
1700,00,98,93
1699,00,98,93
1698,00,98,94
1697,00,98,92
1696,00,98,90
1695,00,98,91
1694,00,98,93
1693,00,98,94
1692,00,98,93
1691,00,98,91
1690,00,98,90
1689,00,98,89
1688,00,98,88
1687,00,98,86
1686,00,98,85
1685,00,98,85
1684,00,98,85
1683,00,98,84
1682,00,98,81
1681,00,98,79
1680,00,98,77
1679,00,98,76
1678,00,98,75
1677,00,98,73
1676,00,98,73
1675,00,98,72
1674,00,98,72
1673,00,98,71
1672,00,98,70
1671,00,98,68
1670,00,98,65
1669,00,98,64
1668,00,98,63
1667,00,98,62
1666,00,98,61
1665,00,98,59
1664,00,98,57
1663,00,98,56
1662,00,98,55
1661,00,98,53
1660,00,98,52
1659,00,98,51
1658,00,98,49
1657,00,98,48
1656,00,98,46
1655,00,98,43
1654,00,98,40
1653,00,98,37
1652,00,98,35
1651,00,98,35
1650,00,98,35
1649,00,98,33
1648,00,98,31
1647,00,98,27
1646,00,98,26
1645,00,98,26
1644,00,98,25
1643,00,98,24
1642,00,98,23
1641,00,98,22
1640,00,98,21
1639,00,98,21
1638,00,98,20
1637,00,98,19
1636,00,98,18
1635,00,98,16
1634,00,98,14
1633,00,98,14
1632,00,98,14
1631,00,98,14
1630,00,98,14
1629,00,98,14
1628,00,98,14
1627,00,98,14
1626,00,98,15
1625,00,98,15
1624,00,98,15
1623,00,98,16
1622,00,98,17
1621,00,98,18
1620,00,98,20
1619,00,98,22
1618,00,98,23
1617,00,98,24
1616,00,98,27
1615,00,98,31
1614,00,98,33
1613,00,98,34
1612,00,98,36
1611,00,98,39
1610,00,98,42
1609,00,98,43
1608,00,98,45
1607,00,98,48
1606,00,98,51
1605,00,98,52
1604,00,98,53
1603,00,98,54
1602,00,98,55
1601,00,98,56
1600,00,98,58
1599,00,98,59
1598,00,98,59
1597,00,98,59
1596,00,98,60
1595,00,98,62
1594,00,98,64
1593,00,98,64
1592,00,98,64
1591,00,98,64
1590,00,98,64
1589,00,98,64
1588,00,98,64
1587,00,98,65
1586,00,98,66
1585,00,98,67
1584,00,98,68
1583,00,98,69
1582,00,98,69
1581,00,98,69
1580,00,98,69
1579,00,98,69
1578,00,98,69
1577,00,98,69
1576,00,98,71
1575,00,98,74
1574,00,98,75
1573,00,98,76
1572,00,98,77
1571,00,98,77
1570,00,98,76
1569,00,98,76
1568,00,98,78
1567,00,98,79
1566,00,98,79
1565,00,98,79
1564,00,98,79
1563,00,98,80
1562,00,98,79
1561,00,98,80
1560,00,98,83
1559,00,98,86
1558,00,98,84
1557,00,98,82
1556,00,98,82
1555,00,98,83
1554,00,98,83
1553,00,98,84
1552,00,98,85
1551,00,98,85
1550,00,98,85
1549,00,98,86
1548,00,98,86
1547,00,98,87
1546,00,98,87
1545,00,98,87
1544,00,98,87
1543,00,98,87
1542,00,98,87
1541,00,98,87
1540,00,98,87
1539,00,98,88
1538,00,98,88
1537,00,98,88
1536,00,98,87
1535,00,98,88
1534,00,98,90
1533,00,98,91
1532,00,98,91
1531,00,98,90
1530,00,98,90
1529,00,98,89
1528,00,98,88
1527,00,98,88
1526,00,98,89
1525,00,98,91
1524,00,98,92
1523,00,98,93
1522,00,98,93
1521,00,98,93
1520,00,98,93
1519,00,98,94
1518,00,98,94
1517,00,98,94
1516,00,98,94
1515,00,98,94
1514,00,98,94
1513,00,98,94
1512,00,98,93
1511,00,98,93
1510,00,98,93
1509,00,98,93
1508,00,98,92
1507,00,98,91
1506,00,98,92
1505,00,98,91
1504,00,98,89
1503,00,98,88
1502,00,98,88
1501,00,98,88
1500,00,98,87
1499,00,98,85
1498,00,98,84
1497,00,98,83
1496,00,98,79
1495,00,98,75
1494,00,98,71
1493,00,98,65
1492,00,98,58
1491,00,98,49
1490,00,98,41
1489,00,98,31
1488,00,98,21
1487,00,98,15
1486,00,98,11
1485,00,98,09
1484,00,98,09
1483,00,98,11
1482,00,98,14
1481,00,98,18
1480,00,98,20
1479,00,98,21
1478,00,98,22
1477,00,98,21
1476,00,98,19
1475,00,98,18
1474,00,98,17
1473,00,98,15
1472,00,98,12
1471,00,98,08
1470,00,98,05
1469,00,98,03
1468,00,98,01
1467,00,98,00
1466,00,98,01
1465,00,98,03
1464,00,98,05
1463,00,98,08
1462,00,98,12
1461,00,98,15
1460,00,98,20
1459,00,98,24
1458,00,98,29
1457,00,98,36
1456,00,98,42
1455,00,98,45
1454,00,98,47
1453,00,98,48
1452,00,98,50
1451,00,98,51
1450,00,98,54
1449,00,98,56
1448,00,98,58
1447,00,98,60
1446,00,98,62
1445,00,98,63
1444,00,98,64
1443,00,98,65
1442,00,98,67
1441,00,98,69
1440,00,98,71
1439,00,98,71
1438,00,98,70
1437,00,98,71
1436,00,98,71
1435,00,98,71
1434,00,98,71
1433,00,98,72
1432,00,98,72
1431,00,98,72
1430,00,98,70
1429,00,98,69
1428,00,98,68
1427,00,98,68
1426,00,98,67
1425,00,98,68
1424,00,98,68
1423,00,98,67
1422,00,98,66
1421,00,98,65
1420,00,98,65
1419,00,98,64
1418,00,98,63
1417,00,98,64
1416,00,98,64
1415,00,98,64
1414,00,98,65
1413,00,98,66
1412,00,98,67
1411,00,98,67
1410,00,98,67
1409,00,98,68
1408,00,98,68
1407,00,98,68
1406,00,98,69
1405,00,98,70
1404,00,98,71
1403,00,98,71
1402,00,98,71
1401,00,98,71
1400,00,98,71
1399,00,98,72
1398,00,98,73
1397,00,98,73
1396,00,98,72
1395,00,98,70
1394,00,98,69
1393,00,98,68
1392,00,98,66
1391,00,98,63
1390,00,98,58
1389,00,98,54
1388,00,98,50
1387,00,98,45
1386,00,98,40
1385,00,98,37
1384,00,98,34
1383,00,98,32
1382,00,98,32
1381,00,98,32
1380,00,98,34
1379,00,98,37
1378,00,98,41
1377,00,98,44
1376,00,98,47
1375,00,98,50
1374,00,98,52
1373,00,98,53
1372,00,98,55
1371,00,98,56
1370,00,98,56
1369,00,98,55
1368,00,98,53
1367,00,98,52
1366,00,98,51
1365,00,98,51
1364,00,98,50
1363,00,98,48
1362,00,98,47
1361,00,98,45
1360,00,98,44
1359,00,98,43
1358,00,98,42
1357,00,98,42
1356,00,98,41
1355,00,98,40
1354,00,98,39
1353,00,98,37
1352,00,98,36
1351,00,98,34
1350,00,98,32
1349,00,98,31
1348,00,98,31
1347,00,98,30
1346,00,98,30
1345,00,98,29
1344,00,98,29
1343,00,98,29
1342,00,98,29
1341,00,98,29
1340,00,98,28
1339,00,98,27
1338,00,98,26
1337,00,98,25
1336,00,98,24
1335,00,98,24
1334,00,98,23
1333,00,98,22
1332,00,98,21
1331,00,98,20
1330,00,98,19
1329,00,98,18
1328,00,98,16
1327,00,98,15
1326,00,98,14
1325,00,98,12
1324,00,98,11
1323,00,98,09
1322,00,98,07
1321,00,98,06
1320,00,98,03
1319,00,98,01
1318,00,98,00
1317,00,97,98
1316,00,97,96
1315,00,97,94
1314,00,97,93
1313,00,97,93
1312,00,97,92
1311,00,97,91
1310,00,97,89
1309,00,97,88
1308,00,97,87
1307,00,97,85
1306,00,97,82
1305,00,97,79
1304,00,97,77
1303,00,97,75
1302,00,97,72
1301,00,97,69
1300,00,97,65
1299,00,97,63
1298,00,97,60
1297,00,97,57
1296,00,97,54
1295,00,97,51
1294,00,97,48
1293,00,97,44
1292,00,97,41
1291,00,97,37
1290,00,97,33
1289,00,97,28
1288,00,97,23
1287,00,97,18
1286,00,97,14
1285,00,97,08
1284,00,97,03
1283,00,96,97
1282,00,96,92
1281,00,96,87
1280,00,96,81
1279,00,96,75
1278,00,96,68
1277,00,96,62
1276,00,96,55
1275,00,96,49
1274,00,96,42
1273,00,96,34
1272,00,96,25
1271,00,96,16
1270,00,96,07
1269,00,95,96
1268,00,95,85
1267,00,95,74
1266,00,95,63
1265,00,95,51
1264,00,95,39
1263,00,95,25
1262,00,95,10
1261,00,94,95
1260,00,94,78
1259,00,94,60
1258,00,94,41
1257,00,94,21
1256,00,94,00
1255,00,93,79
1254,00,93,57
1253,00,93,34
1252,00,93,08
1251,00,92,82
1250,00,92,54
1249,00,92,25
1248,00,91,94
1247,00,91,64
1246,00,91,34
1245,00,91,02
1244,00,90,69
1243,00,90,36
1242,00,90,05
1241,00,89,73
1240,00,89,39
1239,00,89,06
1238,00,88,73
1237,00,88,40
1236,00,88,04
1235,00,87,69
1234,00,87,34
1233,00,86,98
1232,00,86,61
1231,00,86,27
1230,00,85,95
1229,00,85,60
1228,00,85,23
1227,00,84,87
1226,00,84,54
1225,00,84,20
1224,00,83,84
1223,00,83,49
1222,00,83,15
1221,00,82,81
1220,00,82,46
1219,00,82,13
1218,00,81,82
1217,00,81,49
1216,00,81,14
1215,00,80,81
1214,00,80,51
1213,00,80,21
1212,00,79,90
1211,00,79,59
1210,00,79,31
1209,00,79,02
1208,00,78,72
1207,00,78,42
1206,00,78,15
1205,00,77,86
1204,00,77,54
1203,00,77,25
1202,00,76,99
1201,00,76,74
1200,00,76,46
1199,00,76,20
1198,00,75,95
1197,00,75,70
1196,00,75,43
1195,00,75,18
1194,00,74,94
1193,00,74,69
1192,00,74,42
1191,00,74,17
1190,00,73,95
1189,00,73,72
1188,00,73,46
1187,00,73,22
1186,00,73,01
1185,00,72,77
1184,00,72,51
1183,00,72,27
1182,00,72,07
1181,00,71,86
1180,00,71,62
1179,00,71,38
1178,00,71,16
1177,00,70,94
1176,00,70,69
1175,00,70,47
1174,00,70,28
1173,00,70,07
1172,00,69,83
1171,00,69,60
1170,00,69,40
1169,00,69,18
1168,00,68,94
1167,00,68,72
1166,00,68,53
1165,00,68,31
1164,00,68,07
1163,00,67,85
1162,00,67,66
1161,00,67,45
1160,00,67,23
1159,00,67,03
1158,00,66,87
1157,00,66,68
1156,00,66,46
1155,00,66,24
1154,00,66,06
1153,00,65,86
1152,00,65,63
1151,00,65,44
1150,00,65,28
1149,00,65,09
1148,00,64,86
1147,00,64,66
1146,00,64,51
1145,00,64,33
1144,00,64,13
1143,00,63,96
1142,00,63,83
1141,00,63,66
1140,00,63,46
1139,00,63,27
1138,00,63,13
1137,00,62,97
1136,00,62,76
1135,00,62,57
1134,00,62,43
1133,00,62,28
1132,00,62,09
1131,00,61,92
1130,00,61,77
1129,00,61,61
1128,00,61,41
1127,00,61,23
1126,00,61,09
1125,00,60,91
1124,00,60,68
1123,00,60,46
1122,00,60,28
1121,00,60,08
1120,00,59,83
1119,00,59,59
1118,00,59,38
1117,00,59,13
1116,00,58,82
1115,00,58,50
1114,00,58,20
1113,00,57,86
1112,00,57,44
1111,00,57,01
1110,00,56,58
1109,00,56,09
1108,00,55,52
1107,00,54,95
1106,00,54,37
1105,00,53,73
1104,00,53,00
1103,00,52,27
1102,00,51,55
1101,00,50,78
1100,00,49,93
1099,00,49,10
1098,00,48,32
1097,00,47,50
1096,00,46,64
1095,00,45,82
1094,00,45,07
1093,00,44,30
1092,00,43,48
1091,00,42,71
1090,00,42,02
1089,00,41,33
1088,00,40,61
1087,00,39,93
1086,00,39,35
1085,00,38,75
1084,00,38,12
1083,00,37,56
1082,00,37,08
1081,00,36,59
1080,00,36,05
1079,00,35,56
1078,00,35,15
1077,00,34,71
1076,00,34,23
1075,00,33,80
1074,00,33,46
1073,00,33,10
1072,00,32,69
1071,00,32,33
1070,00,32,06
1069,00,31,76
1068,00,31,40
1067,00,31,09
1066,00,30,86
1065,00,30,58
1064,00,30,26
1063,00,29,99
1062,00,29,81
1061,00,29,59
1060,00,29,31
1059,00,29,09
1058,00,28,95
1057,00,28,78
1056,00,28,54
1055,00,28,36
1054,00,28,27
1053,00,28,15
1052,00,27,97
1051,00,27,83
1050,00,27,77
1049,00,27,67
1048,00,27,52
1047,00,27,45
1046,00,27,46
1045,00,27,43
1044,00,27,31
1043,00,27,24
1042,00,27,25
1041,00,27,25
1040,00,27,19
1039,00,27,18
1038,00,27,25
1037,00,27,28
1036,00,27,24
1035,00,27,24
1034,00,27,31
1033,00,27,36
1032,00,27,34
1031,00,27,37
1030,00,27,48
1029,00,27,56
1028,00,27,58
1027,00,27,62
1026,00,27,73
1025,00,27,80
1024,00,27,81
1023,00,27,87
1022,00,27,97
1021,00,28,04
1020,00,28,03
1019,00,28,06
1018,00,28,15
1017,00,28,19
1016,00,28,17
1015,00,28,18
1014,00,28,25
1013,00,28,28
1012,00,28,24
1011,00,28,23
1010,00,28,25
1009,00,28,23
1008,00,28,15
1007,00,28,10
1006,00,28,11
1005,00,28,08
1004,00,27,98
1003,00,27,91
1002,00,27,91
1001,00,27,88
1000,00,27,80
999,00,27,73
998,00,27,71
997,00,27,65
996,00,27,53
995,00,27,45
994,00,27,42
993,00,27,34
992,00,27,20
991,00,27,09
990,00,27,04
989,00,26,97
988,00,26,84
987,00,26,75
986,00,26,72
985,00,26,64
984,00,26,50
983,00,26,39
982,00,26,33
981,00,26,23
980,00,26,06
979,00,25,94
978,00,25,88
977,00,25,78
976,00,25,61
975,00,25,47
974,00,25,39
973,00,25,28
972,00,25,10
971,00,24,95
970,00,24,86
969,00,24,73
968,00,24,54
967,00,24,38
966,00,24,29
965,00,24,15
964,00,23,93
963,00,23,75
962,00,23,64
961,00,23,50
960,00,23,29
959,00,23,11
958,00,23,01
957,00,22,86
956,00,22,64
955,00,22,47
954,00,22,36
953,00,22,22
952,00,22,01
951,00,21,85
950,00,21,76
949,00,21,63
948,00,21,43
947,00,21,26
946,00,21,17
945,00,21,03
944,00,20,83
943,00,20,68
942,00,20,60
941,00,20,48
940,00,20,27
939,00,20,11
938,00,20,03
937,00,19,91
936,00,19,73
935,00,19,59
934,00,19,53
933,00,19,41
932,00,19,23
931,00,19,10
930,00,19,06
929,00,18,96
928,00,18,79
927,00,18,66
926,00,18,62
925,00,18,52
924,00,18,35
923,00,18,23
922,00,18,19
921,00,18,11
920,00,17,96
919,00,17,86
918,00,17,85
917,00,17,78
916,00,17,63
915,00,17,54
914,00,17,54
913,00,17,50
912,00,17,39
911,00,17,33
910,00,17,36
909,00,17,36
908,00,17,28
907,00,17,25
906,00,17,30
905,00,17,29
904,00,17,22
903,00,17,22
902,00,17,30
901,00,17,35
900,00,17,32
899,00,17,34
898,00,17,46
897,00,17,53
896,00,17,52
895,00,17,58
894,00,17,73
893,00,17,85
892,00,17,89
891,00,18,00
890,00,18,21
889,00,18,39
888,00,18,49
887,00,18,65
886,00,18,92
885,00,19,18
884,00,19,38
883,00,19,64
882,00,20,00
881,00,20,33
880,00,20,61
879,00,20,97
878,00,21,45
877,00,21,91
876,00,22,33
875,00,22,84
874,00,23,50
873,00,24,14
872,00,24,74
871,00,25,43
870,00,26,23
869,00,27,04
868,00,27,80
867,00,28,64
866,00,29,56
865,00,30,47
864,00,31,34
863,00,32,26
862,00,33,26
861,00,34,24
860,00,35,18
859,00,36,17
858,00,37,23
857,00,38,24
856,00,39,17
855,00,40,14
854,00,41,17
853,00,42,16
852,00,43,07
851,00,44,00
850,00,44,97
849,00,45,87
848,00,46,69
847,00,47,53
846,00,48,41
845,00,49,18
844,00,49,80
843,00,50,36
842,00,50,91
841,00,51,39
840,00,51,78
839,00,52,14
838,00,52,49
837,00,52,75
836,00,52,89
835,00,53,03
834,00,53,19
833,00,53,26
832,00,53,22
831,00,53,15
830,00,53,10
829,00,52,97
828,00,52,75
827,00,52,53
826,00,52,34
825,00,52,12
824,00,51,82
823,00,51,55
822,00,51,32
821,00,51,06
820,00,50,73
819,00,50,40
818,00,50,11
817,00,49,80
816,00,49,43
815,00,49,08
814,00,48,78
813,00,48,43
812,00,48,01
811,00,47,64
810,00,47,32
809,00,46,99
808,00,46,60
807,00,46,25
806,00,45,98
805,00,45,68
804,00,45,32
803,00,44,99
802,00,44,73
801,00,44,43
800,00,44,07
799,00,43,77
798,00,43,56
797,00,43,33
796,00,43,04
795,00,42,76
794,00,42,53
793,00,42,28
792,00,42,00
791,00,41,78
790,00,41,63
789,00,41,43
788,00,41,18
787,00,40,99
786,00,40,87
785,00,40,73
784,00,40,52
783,00,40,37
782,00,40,31
781,00,40,24
780,00,40,14
779,00,40,08
778,00,40,07
777,00,40,03
776,00,39,93
775,00,39,89
774,00,39,94
773,00,39,99
772,00,39,98
771,00,40,00
770,00,40,09
769,00,40,14
768,00,40,13
767,00,40,17
766,00,40,29
765,00,40,36
764,00,40,36
763,00,40,38
762,00,40,46
761,00,40,53
760,00,40,55
759,00,40,61
758,00,40,74
757,00,40,83
756,00,40,87
755,00,40,94
754,00,41,08
753,00,41,21
752,00,41,31
751,00,41,46
750,00,41,66
749,00,41,79
748,00,41,84
747,00,41,94
746,00,42,13
745,00,42,31
744,00,42,42
743,00,42,55
742,00,42,73
741,00,42,88
740,00,42,97
739,00,43,11
738,00,43,33
737,00,43,53
736,00,43,67
735,00,43,83
734,00,44,05
733,00,44,23
732,00,44,36
731,00,44,53
730,00,44,74
729,00,44,91
728,00,45,01
727,00,45,17
726,00,45,39
725,00,45,58
724,00,45,71
723,00,45,86
722,00,46,08
721,00,46,26
720,00,46,36
719,00,46,49
718,00,46,71
717,00,46,90
716,00,47,03
715,00,47,17
714,00,47,36
713,00,47,52
712,00,47,61
711,00,47,74
710,00,47,95
709,00,48,12
708,00,48,24
707,00,48,40
706,00,48,60
705,00,48,76
704,00,48,85
703,00,48,97
702,00,49,15
701,00,49,31
700,00,49,41
699,00,49,55
698,00,49,75
697,00,49,93
696,00,50,04
695,00,50,19
694,00,50,39
693,00,50,53
692,00,50,60
691,00,50,71
690,00,50,91
689,00,51,08
688,00,51,17
687,00,51,28
686,00,51,44
685,00,51,56
684,00,51,65
683,00,51,83
682,00,52,09
681,00,52,25
680,00,52,30
679,00,52,39
678,00,52,58
677,00,52,74
676,00,52,85
675,00,53,03
674,00,53,29
673,00,53,48
672,00,53,61
671,00,53,83
670,00,54,10
669,00,54,03
668,00,53,40
667,00,53,30
666,00,53,85
665,00,54,35
664,00,54,62
663,00,54,79
662,00,54,98
661,00,55,13
660,00,55,19
659,00,55,30
658,00,55,53
657,00,55,72
656,00,55,77
655,00,55,84
654,00,56,03
653,00,56,20
652,00,56,25
651,00,56,35
650,00,56,58
